PC1,PC2,PC3,PC4,PC5,PC6,PC7,PC8,PC9,PC10,PC11,PC12,PC13,PC14,PC15,PC16,PC17,PC18,PC19,PC20,PC21,PC22,PC23,PC24,PC25,PC26,PC27,PC28,PC29,PC30,PC31,PC32,PC33,PC34,PC35,PC36,PC37,PC38,PC39,PC40,PC41,PC42,PC43,PC44,PC45,PC46,PC47,PC48,PC49,PC50,PC51,PC52,PC53,PC54,PC55,PC56,PC57,PC58,PC59,PC60,PC61,PC62,PC63,PC64,PC65,PC66,PC67,PC68,PC69,PC70,PC71,PC72,PC73,PC74,PC75,PC76,PC77,PC78,PC79,PC80,PC81,PC82,PC83,PC84,PC85,PC86,PC87,PC88,PC89,PC90,PC91,PC92,PC93,PC94,PC95,PC96,PC97,PC98,PC99,PC100,PC101,PC102,PC103,PC104,PC105,PC106,PC107,PC108,PC109,PC110,PC111,PC112,PC113,PC114,PC115,PC116,PC117,PC118,PC119,PC120,PC121,PC122,PC123,PC124,PC125,PC126,PC127,PC128,PC129,PC130,PC131,PC132,PC133,PC134,PC135,PC136,PC137,PC138,PC139,PC140,PC141,PC142,PC143,PC144,PC145,PC146,PC147,PC148,target
8.946238932627585,-19.387606340670143,21.042407258805646,-12.161894703743343,-8.300956949928148,-3.153424324061467,7.623875734947328,-5.276051176722361,4.968468375311151,13.490026147189282,2.3307776500188693,1.3587854263134413,-6.018199944687764,2.2838939130786198,1.5696945523742774,-2.4269297881792617,2.503166245976172,0.3631953003496938,3.849747407306082,7.630306579465552,-3.136079474206075,1.4055097616057257,-1.96884601660755,-1.7510270388519869,8.468100005462237,0.5529252528356138,-10.417375457656066,0.9270709323900991,-3.7696212762091443,1.0833306252930568,0.2378250939150382,-2.73909281173867,2.4213842266378798,3.6276193419726157,9.1089741114673,-0.9395845086707263,4.989491254722215,3.8081789330967775,0.8470337743732278,3.5778400926274454,5.518521928234352,-5.859166517388276,4.493921265278117,9.328498121236796,7.034226841578136,-1.2978385388729952,-1.0513190698276502,-0.30700845336129123,1.2831537278406107,-2.316627699361251,0.6853779861498092,-0.0696899629617935,-2.0355161514734474,1.147566863977484,4.234535802360493,-4.893413721331262,4.297706433824447,-1.7162574754964641,-2.380787820835077,0.19801733074377273,3.6813034843425463,2.7964905974920753,10.514468561602438,-3.6095194630842076,-2.546074351958601,-0.29626009468485565,-2.064452650142315,0.5296872032905033,-1.307524238011165,3.931709875335855,-1.4824483097898096,8.250392763262617,2.384610467316922,-3.442541662513592,-0.27739655619973624,3.253698380651962,-1.2156923395308914,-2.8767221666602265,1.5912879301111624,5.47809673048511,-0.6481581556302284,-1.6889300110340064,2.618488838683686,1.6465694611340647,-0.7906261084277852,0.5068746026218883,2.4138833231988177,1.0082174313108347,0.5252639371801485,-0.0666080414984236,-0.015906903428666602,-1.9793782993970312,-1.8487709801499088,2.1849540738339917,0.11397773687273281,1.3123943434916183,-1.369149803693228,-1.1823212676009351,-1.5687350626769136,2.0584004664972744,0.4045462877614196,1.6366225192306179,1.2066235002682872,3.178987929408077,-0.68965938599684,-0.9150493639717693,0.5282589349010632,-3.4663377617725577,0.7504826843016165,-4.134917839971964,3.05485290130273,2.568231492921592,-3.3836758628542225,-0.8455251061103134,0.7135747705260415,0.2774580927298617,-0.18490357225765633,0.03429802119351168,2.140109664800046,-1.04955225454086,1.3574505161408092,2.818385903328013,-3.9989169393058264,-3.533407519852766,1.3663077598635587,0.8411400781249487,0.8302509776275391,0.7636690661305474,1.5592914442065526,1.5814892736034767,-0.9499560795248725,-1.825167857526208,3.4224045646843124,0.5283143280703041,0.749814550250462,-1.9232947663692248,-4.142730968026385,-3.9397857740063396,0.8911615243717826,0.161801574595243,0.30507221715314314,1.303603786123347,-0.8865607978145492,-2.3148105723595487,-0.5762171503313199,-0.014157846602516405,0.5069963837771145,1.4700383239830086,2
-1.2802657891479834,21.79499932505664,3.209588297024937,0.5537830371407775,3.5190117034195736,3.7001767232757197,-0.9343201716208878,-10.084970661551587,5.790402286999606,-3.5968147886057573,-8.004134718493225,-2.1019932189798753,9.710108325359931,-2.5780975376712214,5.684784595788037,-5.6442592598525,8.929593929090203,5.832720266087329,-12.57461887159354,-3.9920765383298566,-1.4652613721979038,-3.4668259198415248,-5.965440821786416,-6.316550293063304,-1.5359841971896087,0.3984396762945915,-5.949764443870157,-2.3184320858575505,-2.2139255163459857,-1.6322216947623829,-3.8829813959103965,3.22949057937249,-1.1389183471277706,-1.5689012408832774,-6.39696196406464,-3.1756873038934565,-0.3455958639153479,-3.2015494506617346,7.563780302587955,11.20269512779975,0.14654901129004744,0.2425393290221518,-4.064697862450626,-2.6227360137002975,-0.6423547786172301,3.3749637601676206,-1.2807480248053407,1.7064114662916379,8.502774042587761,-4.7181300140994,1.7665693997332264,-0.6102467420899254,-0.2945359895032812,2.111550631758685,4.617181907233305,6.5436258158251155,1.3241623044819002,-1.0631923946287714,-7.7064295073627065,-5.223270210316283,-0.8211554234413124,2.158477918180733,-3.5106925008130054,3.459086640513529,-7.1925817175928435,4.329838260363167,-1.4988827882170086,6.550773463858791,2.5353533832925645,6.122073696950075,6.175083850847551,-3.7443864514315566,-0.811327064316334,-0.5976844347683649,4.784823506992614,1.3317325392215544,-5.282918203889889,-4.35049402402135,6.264068512671949,0.5403907346222403,1.3299278269310524,-1.0751522462005636,2.909242747739626,4.1623815043250385,-1.552204270024758,3.57689116673371,-0.5973548154579942,1.650229901277219,-2.010103498017724,-1.4320189085536492,0.8913410469991125,1.17019687097074,-0.3603259561174032,-0.35687213708566345,0.06990445042690606,-0.9417126040537821,3.6026848257370068,-1.2551894529584797,-2.071722621844039,2.7566889602889484,2.7800423549085265,3.460404863735643,1.1270548635808566,1.0227322877813183,-0.8914835068477318,3.3029504665357226,-2.5688141388055468,-5.4328706446443205,5.710364369647041,1.708748006182865,-1.644969270266224,-3.1687127819708785,-2.211014871928098,-1.711929693130625,0.8491554679315155,-2.4550008418163687,-0.18452049522473699,-2.5415462596822307,-0.6424759945898191,-2.9439472598049137,-3.6171026196804097,0.9609186159443885,-0.8027316537241924,1.0271790837579255,4.959092549967979,-2.2584034277194145,0.9771661498516991,2.3967975149249034,-3.8945912600740695,3.7676813672885623,3.927349896256959,1.886168676066199,-1.6435629710015545,-2.7800892372932213,1.776420257209352,0.6916405277300518,-1.9368244890920026,1.160527845676507,3.68996483118571,0.23337154327491555,0.9737923665804036,0.8210764114679742,-0.8306828919540772,-1.6367999526443715,-1.0879819062309024,1.0876297914069148,-0.8512349271571431,-0.44023316751354813,2
-33.22232619719553,-2.256293830337213,-5.778221947251585,-0.7974362872987013,-1.7753852161305137,11.613836312555078,-20.171480423331055,-0.45653685875445577,-10.257455505619774,-14.98528042214618,4.274188050908596,-5.094391417026244,9.04957013290778,5.83785601554224,-14.104015684149523,0.6694138612879389,-1.4229463205228203,2.6084141029284735,-6.924421882424793,9.451627247705046,1.220147165077063,-1.4253838515877617,0.7502799402764906,8.102820907120599,5.409363440129476,1.1741300442266223,-5.38886892846814,-0.5602239494160705,4.555169299043119,1.2846599018689067,-6.477995629217798,-1.6026152804953062,0.16444300120104122,-3.6190529294114846,4.662012144349409,-2.347662902503477,-0.5565440528988723,-5.149703086646892,2.0357347637692174,1.0498113986162592,3.238622418418936,-1.918911809326007,-1.0004198061622025,4.857728280897701,-0.3535767802062143,-1.3489749215153648,-1.5665471644393736,-3.8466295527661916,-5.547475505472369,-4.031555676859918,-3.141708539565224,3.4248007596119288,3.4925848423631596,-3.035303340352367,2.5555237668840385,0.14608148894260445,-3.5118274307182036,-0.9616405484505799,1.760313581909067,2.378375733940766,-0.6122484353786206,-0.4934013182034504,1.944656781384816,0.5222085654918662,3.5983030854024145,2.0898327088413486,-2.9754071983980963,3.9867610464694585,2.774571448349973,3.32518731087926,-5.118760557193986,0.6787940972816494,-1.2464571648593228,1.3775413909524836,-1.0775173736335943,-3.619730428941674,-6.13342761119611,3.603225440697812,-2.264754317133678,-0.536285905879889,-5.434176483863313,0.3203945418101368,-4.512179899569179,-1.4248060651629673,-2.0230848439793965,2.5351085799606503,-0.25497958259362735,0.28621853736920966,-1.4192609464863746,-1.7674323208431866,-4.063582740510866,-1.0154402454219815,1.4510149821779939,1.1960591066902004,-1.5286701972154986,1.1797296829507415,-0.1376760428980902,0.0037902864748927895,0.7717778141078314,3.714153475272076,-1.4050918127718899,2.5314988722426572,-2.7884294757435915,-2.6581082669230085,-2.4548332346540063,0.15890736085377763,-2.4477453340737356,0.5325110417262685,-1.8479234682652483,-2.3780110991513657,-0.4317741729087802,-2.679201243680523,1.5678879049412864,-2.7005588669510465,1.1370875796153046,1.031795573497394,-2.8342897866267043,2.344818993515548,-0.3594749108508521,0.027732815118811753,-1.6264608156086187,2.050283003019371,1.2093275360649962,1.748442606476649,1.013988509638755,-0.005136075976083319,1.322372660966682,-2.3734312746026744,-2.152648273516383,-1.1738073790268924,0.8866442322411715,-0.45084979956277244,-1.3408520784300706,1.4058605237150146,-1.5464791353051768,-0.7699531130032107,2.8618880530486366,-1.6367719895292103,4.41431588349982,0.11839269912783645,-2.3446770838580506,1.322440873127059,-1.5169270157734935,0.8493513446281308,1.6889299654766912,4.867245070980648,0.057545244078520866,1.9239515662675932,2
-15.827545544472398,-7.196189014933881,1.66715945120629,-8.560544278154012,11.982317932890078,-13.072973034045141,-0.8193137047680643,5.240829506737422,-3.7941455753324,-9.164773890529396,7.9147585127756015,-5.0115230304842,-5.611167408370621,-1.9180276896211157,7.243909979850792,2.568318386330447,2.2675474814730086,1.8274902480791677,4.860290378301648,-7.650328752525094,0.17654282000133956,2.318207489854781,-2.474515840995218,3.0120745682511214,-3.011431874002921,3.9845099401253665,-5.644438058968332,-7.80696011981137,-6.035527778285675,-7.900269196115082,-1.542003023723668,2.3098785628741565,5.642485600396091,-1.2093024394087937,-3.5293038348585566,-4.968836753994765,3.958059481989751,-3.6956777103064002,3.7054954730495213,-6.136774321488338,-4.62919761989878,0.28218686189338127,9.894513853766902,3.1826876515971554,4.107035703410352,-1.5786805858987085,-3.9539871798428687,-4.970911026969289,2.6011579406506575,-1.6791237409841437,0.9322803001846035,3.2446018059132107,-1.2183983765901838,5.066669964024179,-2.1783252034258567,-0.5636217095306114,0.16669980163296583,-3.507420293540151,2.321964409886477,2.6213060719220964,-4.372442902937026,5.253178843716429,-2.8399629167004248,3.348880929444016,-0.27097573257888313,1.134309462997213,5.502319768551664,0.11752534630077732,6.2519640969142944,-1.1713216052817468,-0.1150119804817472,1.6929528589895255,-3.914203031063134,5.4856101105835675,-2.3333653048221317,-1.5310413404981171,0.9680102604495324,-0.35116632352820504,0.9126863270525502,-4.179268046035034,3.110520466390017,-1.4562512745435727,3.222038636732018,-0.28983771762114696,-4.862682717301043,0.5578668158149033,-2.190241194669154,-3.755667451319504,1.4918458463873296,-1.4285323136802093,0.5044235284219438,0.15667717171424003,-4.002959599606955,0.9214522615653996,-4.798044232155989,3.705122313849332,4.181459488334455,0.46884580775589196,0.05391429754192256,1.6851525137993382,-2.434690370780728,2.9924743342764812,-0.6050856365502121,2.3984204063702323,3.3484726991614386,-1.3388718888813618,-0.8964310760500751,5.122161538876885,3.6946033615945484,-0.5472674261650661,-3.2211029898444568,0.44974027959277546,-1.2098432409165438,-0.05359046083689294,0.830142507534986,4.071874597679919,4.175099754770187,-0.614436357719705,1.296064600402127,1.298518990573851,0.5275386890890871,3.0112957222237102,3.135039764326418,-1.0841158586774882,0.6146838693383766,4.329004069258292,3.845339044103202,2.531322982806789,-1.513166419500833,0.021962326042947105,-2.8356346621730806,-1.1128039968186627,1.2512783706658193,-1.945770595306626,-0.11793607609214848,-1.5303145726859564,1.7057016052599296,2.0020472667401075,0.9043907647209685,1.1795134114126486,-0.8456505965650378,-1.264305616456138,-2.436060790110683,-2.812877674201861,-0.7340818256377278,0.1224865104802689,-0.6718810397447305,-3.8445378460983313,2
-20.525783148546225,0.2910705301698862,-11.21370488304993,-13.301340260960227,-8.853036078932096,19.264014764866893,-6.578058092036701,7.813387784550844,14.772669017475943,8.717980265966293,-5.984765191480238,-8.497438416497193,-1.4383394440953234,0.16177236163318834,-3.989116219967949,-12.225093626927862,3.6907804784737546,-2.424519217976553,0.27594091651662317,-5.904521902178505,-8.974017730722007,5.721629927342696,12.610075024818578,4.055409210327601,-0.2235382329803341,6.729951969863324,-4.181155916065571,-1.5580183918988137,8.645476475507333,2.4141787491285407,5.31478067386695,-1.7817592722315956,9.813441886416939,-3.21653327153678,-5.422662797811631,-2.9887612184061636,-5.222304635073673,-3.6305128408917997,-8.588680009404529,2.686237451609194,-1.5665857761048418,-2.766911716803057,-8.638492344996754,-3.31926029617679,4.271459667822069,0.2895149851496644,-6.0386180193108006,0.22305318372771304,-0.37207330703570535,2.630263503569209,-2.9105231347031717,-3.9106913798483207,-2.1459001845763894,7.9127530334813585,-1.5392134507252597,-2.0391659467166594,3.82311868354849,5.403147269698796,2.7450536627397857,-3.9541942747674357,0.15403795159580208,5.699058004320313,-6.807051595309365,-1.9701957763407034,-1.8783423289091152,2.2208925154582198,-0.6519892430070499,1.5190109363874356,-4.152979831712288,5.493485771503563,-5.636283224218851,1.578315212160896,1.1676411339646504,-4.232956127269486,-3.614577914745153,-4.27022253394493,-4.8919578477759185,8.601983501483831,-5.167946719502015,1.5986947466781545,1.614141311258102,0.0730643052530752,-0.3965915113272258,0.9972854382126234,1.7728123663788493,2.554668075568521,3.3129576491594515,-0.34161282897722894,4.828763201048028,0.34833279478303414,4.498338381509807,-0.47034510623307424,-0.9353840400172868,-2.1262268129731066,5.292232859515237,-3.4456900100313494,0.399892943849148,2.048686594906116,2.1927087730389228,0.7544652782785516,2.4387897371557927,2.352089497656525,-0.1646084183328427,-1.823133800207875,-3.1093904085588435,1.3492434832475617,2.5514654832668247,4.469619436804088,-1.3167141845797794,-0.46737800645698163,2.219343521495195,-1.1505494881427352,-3.32681627968251,-0.4967073544711653,-1.22836307795479,-4.59557729168623,-0.9141568547678186,-0.07951962918752775,-2.5356283955532373,1.1431461921602784,2.5447704374333946,-0.6407484379533133,-2.7411205459411567,-3.1713501379804843,-1.2321295396828955,-1.225138826935195,-1.8389849255483879,-1.5750676545191824,2.108903642756475,0.4060042025998679,0.1365603183556628,1.4588236622449129,1.4659063234094285,-1.5615514049355665,-2.657221586600071,-2.1048899237801493,0.7681617768046535,0.19083534747247902,2.335384284690831,-0.03342814447052984,1.7397724359689728,-0.3706447388848854,0.4512153179447809,-1.5778128892968923,1.3003129425481075,1.091770244529095,-0.4768222608700182,2.343856289451844,2
-15.488529620450079,-21.16762060322928,5.821162212019882,1.28634999121577,4.669053221699674,1.3575165071847348,10.553458443040403,-4.177016925331876,1.4077879069363075,-7.574601448036121,-4.854942441625892,2.3299583035900366,-2.2265268782359513,2.3058520998250214,2.0666989702515126,4.675819802144453,-4.3349974202880786,4.108588710914642,-0.6578780323173214,-14.047578622897957,7.0053940657655165,4.5285434075314726,-1.7640466901987462,-10.420116216659745,6.190923474005519,1.416450044028498,-1.0007365366241523,0.6270770935867451,-0.048397221129474866,-3.055508080990585,-9.16564938252521,-1.85316633524035,5.715455746793301,1.1102615125280528,-2.2253710040958743,-1.0136724319663153,6.616709009257528,-12.533985422371433,0.8976488338562453,-9.766797686147958,0.9406773931854959,-2.6063945825373662,11.043016420143497,-2.6197109514364256,-4.740428569049936,-4.53573012160333,-1.4390071914676965,-9.574339511592028,-0.882265247401726,-4.197814019888848,0.04492668444902001,-3.8206919625003968,-7.102337351995863,-4.110441736616814,0.8542111116384048,0.9866036515414338,3.392120510593674,5.559619671527614,-1.1665141194860638,0.8823124266426312,-4.695054922741048,5.379171047095401,4.2484123837600665,3.635231132085025,1.5360375189475486,8.764734460172338,2.4751001203795338,2.756596815439085,0.8720177321158417,-0.2845857228989566,0.905719334129207,9.781023518630235,-0.9188806850469061,-0.08036550536476063,-1.0233108777276523,-3.0699861503597536,3.29317816068841,-5.015130784733903,-1.4733453972101942,-5.024617377877951,0.8478674212050236,-2.5359604356958823,5.280323124779841,1.211771863607145,-0.8448056592625794,-1.4876770836229654,-2.4408005314978487,-3.1631710216337914,2.8954015360715433,-8.02817553928718,-5.942372382447174,4.0660704003558195,-4.080863795177029,1.039124082773145,-1.3958502575938248,0.9854539199831803,3.1069603572077407,-0.049657449053046164,-1.926500946410511,0.1339709760706859,1.8532593266057054,1.6807517616567331,0.16551038896678255,3.6632853660221474,4.95077785912721,-2.0329706517092956,0.6905912603925091,3.5741143602404533,-2.3472781377488596,-3.8347327102760635,-1.8972595809097164,-2.724773142418539,-0.4948191857836952,-3.800449515974678,2.1019321407822997,1.8495283738188009,-2.809538818417698,-3.759013233935728,-2.5319024619449957,-3.176788381142939,-1.1760496423339926,1.004904157334003,-0.5392847877494575,5.481090229426262,0.9696344115505432,-1.2559380627929464,0.2593781717926234,-0.7458218144228466,0.4634318204080293,0.7571640172681672,-1.8384360589790334,1.2509521495918072,-0.6699101668077302,2.771039214373101,0.5542969755310552,0.8846196302403919,-2.3025146129700076,-5.371638450293749,-1.6279422688051766,-1.0763380270175709,-2.618135124141554,1.035463575837286,0.01618434390719733,3.1832918096153158,-0.64764624928316,-1.6712677799791658,0.34654099985856784,0.024296711463942862,2
3.5144322063842757,-18.879409572118174,-1.534453324382825,9.361746905986568,-4.156215589533492,18.971231442699427,4.030542688587624,-0.580432412892954,1.1210372990374247,1.3047995525920473,-3.9542538143522505,-1.7736040090675638,-10.194613735329398,-1.770349198789288,-5.084680383874609,-1.342507814917883,2.0938173063839387,1.62460443024673,-2.0435341020235707,-1.4869910820888188,-3.069893249144452,-3.870932546116549,3.4950196562124827,-2.301952869516919,1.7614623680463453,-1.8129672593860346,7.324609618532553,2.2064324716168677,1.694640365118631,1.7404724278753103,-6.703189791372457,-0.957688788913434,0.9223365364392448,4.05189177984846,2.0055236036452198,8.059504115376702,-1.4702013408510997,1.7472024490363407,0.8163745878085253,-0.6839031952576734,-1.2983160475034516,-1.7995293912548307,-0.7757523786872971,1.4917271943073063,2.924073529871911,-2.5918649386529755,-0.355404306964577,-3.378427717042586,-0.716605403569039,-3.954178984457943,0.5096674246417919,-8.28389258410038,-0.6135646485879368,1.7590972402083982,1.2265434904367354,1.8338161577618346,-5.538255019970255,2.503579045774039,-2.3206907619783657,-2.7717054607454763,1.6751684186113014,2.126494204283445,-7.557259336709626,-7.503602409897677,6.602663121868947,2.1697611784984585,1.6199282291857344,0.4029826914942491,2.1567428669686017,1.0887782290189103,3.056312483968574,1.1896789375999457,-0.16084660737451628,0.14138187001957414,1.9094787667046647,3.1447090615079523,-2.4450106894821517,-1.1535359507178768,1.5894277345868753,0.550870463094821,2.1828311277686865,4.302290969862522,-2.0983559867095645,0.152412941489088,4.071605553701784,-0.4670977487518468,-3.095606433048025,-0.07579849011597323,2.7530943994737056,5.255611812036647,-0.7775721238658132,-1.0178988613747828,-3.1691274224571093,-0.5960438904557912,-1.7634149219260997,0.7517687924755365,-0.47487333496830936,0.7780552371401738,0.19337058206055752,2.7509498681366633,-5.835090884537865,-0.06808606061638924,-4.360082189772971,-0.012340324578802644,4.154901607904023,-2.520802823134168,1.9503073164017872,-0.8863658699376206,1.0685584914731934,-0.8331492401071318,3.7249706575098123,0.5545740791300307,0.9408189606240583,-0.2336466970201037,-0.9020178541327148,-2.893229039564038,-2.0693685313651597,-1.6253649329276219,-0.29801095373978376,-2.950642935383576,3.329083817409359,-5.007997245352586,-4.340835559234536,-1.061980441215508,-0.51437832284475,-1.7164611940879584,2.174488319062407,-2.2398658251770316,3.0767753957359476,0.5163771893470627,0.4579802445060886,-1.0849919813135316,-0.3839174716117233,-0.8068761279689001,1.6263404122126104,5.285867167023412,1.362196779526364,0.5960874413267341,-0.006748646476404735,-1.1123939993460483,-4.26661652652136,-1.9534249129077697,-0.08077741540350596,-1.0106596065762783,0.9680960646540097,-0.5984205614476406,-1.7735681916191417,-0.8746672605807891,2
-23.144891901229215,-7.3017591856527675,-3.9658302978272304,3.519872095073495,-13.664053948038848,0.6583604060232396,-8.573424005463956,0.9742276189703064,-4.9153772689830095,8.386291777531156,0.48006008949210416,-7.091182211309409,-5.647729593289663,-6.870397271535646,8.3357290136207,-3.8990477505105288,-0.534425888910044,0.2420110023162563,-1.9131000956444393,3.964716202547822,0.015650691135580253,9.450743319773355,-4.985582827720584,6.675887217668049,-1.6033122201677636,-5.012377421959026,0.8976429995446877,-7.137413642306526,-3.426690757745067,3.348346147790718,-3.003883243177652,0.5119325835168814,4.839890368073905,-2.2789282250986833,3.845573509700188,2.9806320864803113,-4.81072353450747,-8.883194304428317,-3.0928308191176734,1.6019890031091846,2.451526349502584,-2.5124993060647087,-2.5871531171383393,0.20523331472651,1.9754683587785273,-0.11962187805436347,6.108460408402901,1.8672321831368504,-1.57572039600298,-4.779136012457723,-3.3513961034796282,10.205674652281967,1.653795579291579,1.8770711951005163,-7.844351770275848,-0.780839323039969,1.2154732583452803,-2.31860351150604,0.5121382979840982,-1.3186674264324436,2.888017309330768,0.5142290189308137,-0.7577537475002032,-0.3060607723621833,-1.9094230847399671,-3.8969118384214325,4.866887841908268,-2.5884449348837326,1.0416600218069698,-1.203477720186826,-1.9597626763425162,-3.6745217472272933,5.021786842904154,1.1215151251598663,-1.0243968659281364,0.16100997440847428,-3.9240233108655374,2.8934767051786117,-1.886006363283688,-7.259518859002205,-1.6322933511835995,-0.633623321440328,2.86384691496679,-0.2983266762968567,2.9359665604717753,2.244271929074175,-3.151780062695055,2.691370757508583,0.3260185898078123,-3.9084563670965515,7.3118621014029745,0.8559115100048142,-3.0413778557514863,-7.747058259942624,5.778049003506083,0.43668226978559294,1.0655890496276694,-3.5104739373803207,-0.5077094215859052,2.107468271145029,1.3619946948036723,1.7986994888578784,3.9029596768009673,-3.596733359472158,1.234118618744455,-3.440540486929407,7.6240188138704745,1.7111656883422366,-1.0348017497357078,3.807449843096371,0.7552304903268108,-1.4318150558602392,-2.479683516605244,-0.8527114698314134,1.762311262466721,1.2591812510211458,0.3659143361105959,-1.7579415677037764,5.114540086136572,1.3167322953845484,2.8068959322690477,0.26086802362715084,-4.997807045150529,-1.864328571390921,-6.16266295146044,0.23626061196624384,0.43993388977167086,0.8745656250778794,4.645372005693549,-0.41375358987696437,-1.0048034899805252,-3.1427160825624267,3.3436804501729007,-0.5861767307930119,0.6992975328797254,-1.0537249552015129,2.64902537875481,-2.2937820560821467,2.6732305076640515,2.142774998794523,1.6807820260777966,-3.99964073800418,-1.3168324220070395,-2.9967911476685454,0.9110150536016799,1.2445287350277252,-0.4372353028232794,-0.7006530409651273,2
-7.346108830694911,-3.7299279771097433,-1.6370019589606355,-2.3056778123086357,6.279403995992383,-0.814248559482921,-2.728148972971692,-6.820856274275983,-0.3082136870207345,0.1743212182710787,-6.4703201723029204,3.227687161820126,-6.073126746041974,4.5830791435697655,-3.5042529789961088,3.5724527157902277,8.512240153841653,-3.7465034229692793,1.8595818473538734,-3.7412077171417413,6.267171383973455,5.314033389590197,-6.815642362735777,0.6896338564688931,0.28133742397028466,0.6786592029508914,2.6045972943883506,-0.7960959410079562,0.08367075040404522,-8.78491206512179,9.156815429956062,4.678767872540854,2.588802040822137,2.105067194567573,3.9098672171413265,-8.01468868648052,0.1737685817376538,4.134725337516226,-5.789815581043946,4.082144400793316,2.0282416968662975,-2.9589929743341346,-7.439058801620703,2.261386983678256,2.309457990457377,0.5555105816546785,0.33553963325928654,-0.765672261949092,-1.8811918448828764,2.9944414090760665,5.17336156643278,1.6907478693637947,-0.7480440437860615,-10.399057156084297,-1.5412534054565548,-3.9238043367760764,0.5030497885547309,3.9060268874530526,3.382326062420465,-1.5750465083624252,-4.4777408934894,3.0230317919140246,2.1078482091609745,-4.408519992901401,6.571253682810475,3.002996781617412,-5.1789889908117,4.770550922298974,5.099689237418701,4.382158997288366,2.9855141850199156,-2.685440918537472,2.0213878960953835,-3.969847820842125,-5.545578294692378,-4.838463086507923,-3.660739804889477,-0.2575905264105073,2.800062786399759,-6.06800933561606,-2.362082350379612,5.0901914664612775,-0.10970895656316766,4.997873432195382,1.0673544922622749,-3.44980886526215,2.6423639463348705,-0.6391559677029698,-3.7603749726667344,1.8574441559720332,4.853648671064622,-0.2459454882592612,2.2025518483701916,3.118328441707763,-1.653104117656143,-0.8698449533133521,-4.472368189269624,-3.593170056752266,-4.92779778939259,-1.603885994939508,0.15492263953732305,0.3301159834807606,-2.301169679107526,1.319276421846615,0.35501055911336726,1.6430440477382005,-0.17238486225768343,1.6673862220598947,4.511978755876806,2.924352877093533,0.5325400003685694,2.210735948695915,1.0709835520829607,0.244116075600262,1.9505847438248032,3.1775313935184855,2.204510213829954,-0.07623993453107591,-0.5866371159902792,-1.843494240740801,5.9944907797436,1.1649599204118686,3.052271911953616,-4.084655350854556,-0.11551724690641176,0.8377361425332924,-0.8904527360279515,2.453997991068618,-0.13418646268515158,-3.360704547444767,0.19994222775829495,1.1874893260645871,-0.3968628129391121,1.5794741288820964,3.521433340518625,0.4014504799475613,2.3371287420036464,-4.626473038993169,-4.464291820200802,-1.8263962666465765,3.018326036748759,0.9260458588834805,-0.6313802016297594,-0.2879908927953309,4.072224256339606,-1.1160700406267492,-3.9389967811631936,-1.5260893926630097,2
-28.857734781260348,1.1847243090662365,-5.928743336201557,-3.3394439218950183,-4.468470889250606,-0.224951180473288,-0.7584369649682616,6.099889519226026,-3.2148664433607417,0.4511679260811382,11.047525062881828,0.7254168688710156,16.44243478351091,3.2512123096869106,-3.8724287708637672,2.686567595849328,-4.147115463564193,3.182061542851318,0.2840665480650585,7.628296160493797,-0.16405820437154986,-5.266077922308158,-8.021438988195726,7.044435002149556,8.274455698263381,-14.751186584128293,0.5548968305204676,4.07064494645675,4.260409967550776,5.370553392550934,-2.80331174173102,-5.409725043272917,-9.20276262132851,-0.3422490168110807,-2.262784128559416,5.654697848536984,-7.965327313913395,3.3850854490791917,-2.8639510146124763,-0.5257594216362343,-7.162298547086501,4.636087373462149,-3.0641038359654633,6.180653781065925,4.636824933958398,9.133851253736555,3.0954940821998465,4.48094964323394,2.925195784860719,-1.6574553884680037,-4.078634223636868,-2.529126671135862,5.616977126613409,3.043855369983504,4.764472122581505,0.2260615566694687,-4.836450235699471,0.6359019486773823,-5.939980126663839,1.435769519451691,-7.144459795855512,-4.968548626143924,-1.247037160095782,-3.269326725248714,3.733044065905148,-3.4347533138743205,-3.6184811449419154,2.8141275699407875,5.869714901137361,-4.2148980778508145,-0.06090100720969969,-2.330141126454932,-0.2135058453556329,-1.9652802372290878,3.4034063416590237,-5.7652521955029306,3.784522896133435,1.0653716415612804,-2.3419493668114733,0.5352007855416924,2.384654780128576,0.7199951702016391,6.858076123385676,1.3141059361637386,1.007320382893378,4.751369083026055,0.5164812799094711,3.3290939737386482,2.372376618016223,0.2851646876487985,-3.1843843208927054,-0.2512070916287584,1.0783891075638907,-3.652277734139424,4.330386345151165,0.0016049812399260743,-3.4562386253053776,0.9418024537022326,-1.8568431860174492,2.1167834581875713,6.27906347806514,1.1170671557879153,-3.0292900576850137,2.707276213506927,-0.4566308034367492,1.039250317188796,1.4465387237452063,-2.292848297718464,-1.08575258103417,-2.434012741651024,-0.9109371608949459,0.46920978640333605,-1.3558405495523467,-1.617317042499965,1.0170711566754038,-4.489085055006953,2.60762368510764,0.48428558826382284,-3.8780987460780314,0.8853981655543492,-0.6931319798416352,2.868297578381813,0.33523310405420226,3.27085149552943,1.3811066700756836,2.0872228713846166,0.8039920989909595,2.4729990215716455,0.9308221843150152,-0.15490164132959072,0.10306786130149773,0.22331574400703194,-1.248961467299954,0.8801388847700387,0.4329871120287905,0.8708520744321968,-2.5800051127249533,0.6135227064664499,0.617702423272727,0.6611647743799017,-3.042512159283614,-0.34686223780651304,-0.7322054996604787,-1.4956211144842853,-4.167887801463726,-1.640025494685998,-0.34085591288297135,-1.4774498480017526,2
-24.671529810386325,6.956372548644593,7.9695473381190505,-3.528933521553785,-10.719774371749184,3.3090512616814944,3.2436705419466585,0.28683156810445815,-7.701269236667688,-4.5798417538754475,7.37516659576328,-8.54379385279576,-5.70891756309413,-5.434653892321357,0.3316240203945872,0.6809447216587298,5.448118218796932,0.44660237558079735,-0.06715220601383237,6.865834862658267,9.274266087299528,5.005090804428008,-6.011090871398748,9.930125947060764,-10.341299542090184,-10.042056222750041,1.1426765494476367,-4.869189234213195,1.796848103981923,-2.289548208259631,-6.14903614317288,-3.5860415533962926,4.866760944888241,3.6334642295428274,-0.23981027142071432,4.5478415114572215,-6.16697246400164,-6.890161543430872,-0.021227420407704346,4.512246214624555,-0.029568839345277098,0.3010634914783053,-2.520649547615962,0.10241471953574544,-0.6540285931083498,-1.952549750823925,9.603270532264693,2.7940021292978527,-4.1996406193678455,-0.1518015470407748,6.505332019849711,4.176343134249853,1.9819236250746346,-10.279437349413662,1.8365663629883116,4.140763843113342,4.546802334358632,-0.2927553623075994,-5.1547997195049735,-1.0313217331644113,0.7984559922298416,-3.9068844831986764,4.311602162733436,0.5994523235997614,2.296697086581156,1.7181830628708339,4.140095098787025,-1.3392518585313775,-3.0042802227892524,-3.5423045516770086,-3.3339840998500088,-2.691286499740176,-2.115807877385582,-3.372228774183659,0.4904579304515162,-1.4872670112154742,0.7910825825555912,0.6059079052379623,-1.7414698277751208,-2.6905177180209643,-3.3089839902410607,-0.7645281353626249,-0.8719632933113448,-0.8853255541775267,3.441417727654804,-2.234732184635488,-2.9487773761124214,-4.286752604015308,-4.730120188196302,-0.8685407885729148,4.316993992041439,2.846071089518604,3.280055506472433,-4.500565571676692,-1.765140333179848,-3.607053074505258,-1.5591860680576497,-3.3925517455508656,0.8382054111367345,4.582214658367928,2.360423631985239,0.28300986555655916,2.688796513648693,-2.143084957189479,0.4082640281746322,3.8395579369117527,1.330874673474758,-1.3512412373072031,1.106892337733313,2.753376040595588,0.23770854589884613,1.9910421254230586,2.0534822771774928,-0.6887016219097951,-1.436111959152131,-2.444615211429938,-1.847304647214932,-0.6334420003828516,-1.2303768667889918,0.2462407676827646,-1.5269014016879836,0.5227681230338771,2.68231914184653,-5.247856470803954,-4.665005858261178,-1.9960323875089596,-1.5358357067176742,-2.183759813187662,-2.232260260458368,2.5438495593930144,-1.1186122715564801,-3.354770202308152,-2.559787594470964,0.4187894108629009,0.22310983331522669,-0.6330802031804319,-1.4705291637201945,-3.9782422620876132,-1.2491860682399738,-2.5128042729140385,1.2068181686221668,1.0479442794613836,-0.8224463047596663,-3.372482624711502,0.277826100255282,0.5782306904821242,-1.533282480598774,1.7396004320402443,2
0.7895773798892665,1.7956541932691747,-0.947899756378519,-3.2490997774699566,-0.34038540800890266,4.254646987974127,-10.762819399015843,-2.6066724875171903,-0.08849119246481964,3.2497673485063334,-5.19649288322316,-5.6051450421777815,5.7937468206912,0.1761535715536743,-8.846549608873863,2.415188104695621,-2.17420643255149,2.206779500850561,-4.5774532752555315,0.44903333588214567,-0.051630134201246236,-5.552909884053073,-2.2905916125634787,-11.010998915277954,1.1581579865484826,-0.19918914515878083,4.68626066880793,-1.6233177614303897,-3.2217019244904934,1.9382738650339628,1.3969302684271565,6.127426930640654,-0.05094852110956239,-2.1050622878133045,-3.4212273634184753,6.1660996382351545,-3.3583738246020367,-1.4036755778380128,2.957310066000649,5.427501387976958,2.506237182318596,2.5425693795855904,2.5193309291538037,1.222749441438419,1.6743587147252004,2.093178572979918,3.306158406094267,-4.161325244651097,-7.388031464489938,3.874081767997561,6.093887656471895,6.535779184038675,-3.446205292344044,-2.1651955015562594,-4.203138576823167,0.7518043678252107,2.356300605411459,8.692404772363583,-5.436138952789649,-2.016115373211777,-7.171146230602702,3.6553650606700807,-3.2094661752438904,-0.5043270849072051,-1.3983159166646886,2.053644205241704,1.8293173747158862,-1.3659051568627933,-2.378911760022761,5.474873422580291,1.6318501326620443,2.135217834012845,-3.1901312360247447,0.5529608439009185,0.9608006492178974,-0.1965667597288019,-4.511202144344992,-2.0341060023416135,0.348432785062068,3.047014742052887,0.34633351792167627,-3.8038868546958966,4.951612492310496,1.4624480083255762,-2.3614769653115144,2.916672038817274,-3.2764285078504978,-4.020196029860799,-5.663908137610647,-3.608007325654709,-1.7158312238913613,0.5054508210463553,0.006914659271258972,-0.15835793844928667,2.5432441637671417,2.5278926964985606,0.39843588934652713,-4.164147391280248,-3.2017357301651064,-3.1783483522054867,3.218952045563505,-0.1915968771838045,-0.7298922360823386,-4.751582673508984,-1.6228468226402917,-2.0745605611680085,1.4213923574589569,-2.8165438279796176,3.167568214128501,-0.802660422477377,0.8914766516792737,3.865304406240741,0.5708655772747483,2.531974974928869,-1.2702594122071187,-1.8693245334963975,5.076324731612487,-0.11503202010313793,1.3438375129687958,-2.821095849784919,0.9303140197973562,-2.5193899323269764,-0.931687486378479,-2.0380250319083593,-3.9937674938525776,0.13284209405757816,-2.5127750171247643,-5.019450617534147,0.12009533130925125,-0.9134318282484047,-1.2458355517084105,-0.45029080064022864,-3.733135662949907,6.598736447479387,1.2690194324905275,-1.3343602538587125,-0.654535661358782,3.209796621267755,1.6285000452906901,-2.2339305194270347,-2.6718966509304307,1.2699574690186153,0.46507092121676147,0.5706845189633413,1.7500926612066776,2.8456923808073546,-0.7421517175556396,-1.3120752573271228,2
-14.406033772658285,0.056096934477999384,7.476330166788137,-9.700318659033664,12.488780844754736,1.036408064772106,-5.065312533570151,-12.958619096399639,-5.225543694015439,6.9850914426834425,-4.426431439516666,0.6377511303035228,-9.706624067501458,-3.6039530843963345,-7.4534019584181905,4.197602057322479,1.7790859773986523,-2.5461220374268474,-3.21027850840459,-3.8644130227214815,-0.8549771006219373,3.2978348554668115,-2.110563454660544,5.2199490912394015,6.403425753867907,0.49045402017037176,-2.530817563703122,-9.045896761169935,-0.9505683716757545,-2.5030903564657927,0.5906595405709787,2.1470856686983093,6.148306920183543,3.182905089142519,-2.5839894219247097,0.5694870627380834,-1.9104402787579522,-3.3941692608634857,0.18927954889515936,0.0049812150653026025,1.477187243712925,-2.0879846984677517,-0.7143553091286892,-0.46557425198085156,1.7578843336872751,3.4220008089019758,4.998901058151927,-2.3208689494088928,3.057764168940535,4.879117946028923,-1.1367405276341398,-3.8901896376579503,3.7368146129936894,2.8754207695249714,-2.903479033706651,-7.786716962400123,3.193789250119361,-12.465085315115992,5.593520267086277,-1.5901270048761436,-0.5052758971951341,-6.119269186375746,-3.5122842690913414,3.525219388821359,-0.4703201101488053,-2.2670632585123403,2.049874712658027,-6.7906136329742965,-4.886952918188756,1.8012419740025383,-0.445822007848066,-2.333657020367567,1.119234533451799,2.6499860918789415,-0.4992929853307286,0.3276941369228287,5.793713530553389,1.1331752837725741,0.8975643311250365,-0.360161832086147,-1.8098950092225896,-3.471644064283468,2.7518682896410307,1.1992197624960423,6.9025138956834,-2.02615654734001,-1.5286005233083297,-8.209375201482084,-0.15303579985838894,2.7256274500403004,-2.5046260109273715,2.8336166723508343,-3.2919953867400706,-2.112923224862402,-4.189399030227923,1.25707974602098,0.4104387253152999,3.3061640402739343,-2.24577635508847,5.789215401329037,1.3032376936478787,-2.3377128021651177,1.9697522258518754,1.6357758368035602,-1.2019754930080873,1.7675408120458056,2.379381200545642,-1.8316256285505088,1.998980847289522,-0.2944603481629876,2.6561290889393434,-4.602263260931688,-2.0037739715351495,2.7667611828610332,2.8145586544620866,-2.0250086084286076,6.616209026909126,-1.585349969646561,1.106401702676849,-3.423409084511002,-0.9894908594715996,1.254495128078828,0.959532279530879,0.08516158409176675,2.7610468567233584,0.12985610015936527,1.703000116940059,-1.1610618823708525,-3.7859194059854855,0.6790012006628596,0.4834621151783899,-2.104247676220258,-0.5766884522065969,4.1731278617529215,1.2908115178003103,-2.02910435535951,-2.5138866851202195,-0.8812667458008021,-1.8024502071182822,1.23598959956389,-1.6550147905914303,-1.3663107789343254,-2.0270666219558566,0.8540169909001735,1.2883635732476504,1.0292204128869147,2.4538455615117307,1.582524341932615,2
-26.983934535620115,10.93392288342713,-8.042643102764108,-8.687094937628949,-6.264797889958871,-3.228603615593772,-2.9139920269852095,3.563044353574287,-3.6113664904656497,-3.5329738483071775,4.731273517262318,8.107581858136376,1.4828173116535586,4.164516262785368,5.883195857690799,11.235267694271675,8.81042456200257,5.05731058198528,-7.451209992495957,-4.029284803167558,6.459791413295031,-4.24591361194429,4.289817125991377,-7.964667819656678,4.411742997828079,-1.312720558439388,-1.5123530820337385,-6.8000692932664295,-2.2297605091099597,-8.595387515753194,-6.112999756853145,7.5175178163818,2.263899850930485,5.808634033252561,0.022115645392195623,-3.999189939316905,-3.193547061498847,-5.40568776837605,-2.3874402728150357,0.08770639315695,-4.173900520653982,-2.5758549175897603,0.8625752343232798,-1.377685422883123,-4.739412194372143,1.2462518363434407,9.121791791852036,-1.161682889922269,-1.6814633475047898,2.8547781424489176,0.25067862739881935,4.223597534590292,6.679125927139869,1.3561277733586006,3.598987544375769,-3.4618596519104288,-3.06096574159706,2.6999362676417813,2.4630605184775987,-1.557736552156391,0.576944829549362,-8.512660945896611,5.718242976569193,-0.7131191987497165,-1.3912406766497545,6.610265398602042,1.0002290286385753,-2.57285250365572,-5.498705574630837,-2.840312795583406,-1.4335622100849001,-2.2277624694861973,2.7007631889841397,2.8178408790770963,2.8584058575771736,7.60695961240463,-3.345167727690541,-2.92816902794842,2.7976560349875577,1.261217421950671,0.6330931130451962,3.5156672991389746,-3.0276421888801366,7.865578365356776,0.4651045210650814,-2.352903745802207,-1.2913216973728043,2.054472164254921,1.6273612811281837,-3.121449291506489,5.081308541617335,-0.4338791964000791,-4.531798997046492,-0.4315739234301549,2.4874544179795284,-3.4916954686194766,-0.2232106302550142,-2.9368663852458385,2.8882805127017557,-7.471231337007106,1.457544666606301,-2.4434762836473367,-0.2151087017331332,0.430772404039275,-3.989064315795405,2.41529230060588,2.273513697177449,3.6277395513964774,-0.942282855908172,-2.6388685582177818,-0.9506259314583195,-1.6144668476155415,-3.7914695037648807,-3.0924131696910524,-2.68058150229436,-2.002236894676954,-0.03995755739442147,-4.2734166063867205,4.3114788116327265,-0.8173593572383185,-1.1252097712535905,-1.9649305750201547,-2.933927535052457,-2.3312321531373605,1.1492316483712088,1.8206011903030457,0.2648678562423232,2.5051461259320473,-2.2135555499822144,1.9636794156517428,-1.8332707022845118,2.7751960659595514,3.468602323213169,1.1553130400813498,0.03400466440668866,7.113562677056005,-0.5384239393058695,2.30133163940986,1.0039712522549369,-1.3249379957023217,-2.1978876550787336,2.3438939080368995,-3.5413770696635423,1.4166672445993922,0.6227573551017365,-3.077159115170915,0.24777615801833142,4.424851213930465,2
-17.47031970210464,13.345291706094326,-0.30176530397958756,-3.0332936891627433,0.3232628816835975,-2.2365715602384473,11.281935359985727,0.2676650341528825,-15.176340040355026,10.430264707100553,8.612790084703153,6.651048602526223,3.1773578380348626,6.3164561509367205,-1.253232478634996,4.545404060507075,0.8597693496999301,5.95680584842021,-0.9762709600550475,2.120299194516736,-1.8686424914149113,-3.5090494455641714,6.1649269528026425,-2.2580196199273326,7.988485007565422,2.5955597853622074,1.5905401183008303,-3.489041565113081,0.9010727042879653,1.2511361004821522,-3.732017659269347,6.048768810638138,0.8672562644729048,2.9114004127212625,-2.935170144032351,-1.0413551527400573,-4.831547657048786,0.6647575971237295,5.895686234902575,5.245772742407655,10.928368387814356,12.200932941153118,5.741714257967881,-8.432968790391318,4.045588385623341,-0.3555277175867836,-7.02748024632085,-0.12245299909448241,1.470271644160571,-2.245708587492585,12.808305720439536,0.08948421417006838,-2.6805896949354895,1.86914952786124,-5.296266365964797,1.6701516733097315,-0.8648105696585178,-1.390994735713017,1.58045297348808,-1.1440811325939957,0.9837837293317643,0.6928562258680064,4.76348906952497,-0.7313757738134317,1.3224260506445975,0.07596356015192621,-6.727602446212795,-1.4892312339876173,2.572396258273746,2.8846234446044337,-0.06458913738609698,-0.1510469379971554,-4.940503667164853,-1.6971102525155088,5.039940566450616,-0.518562823934888,1.91249012924406,1.2955707720202576,0.9774880277843435,3.477389451756356,-2.257539290671808,-2.7410077477874295,-1.3149243805517787,0.6914601133091186,-1.3342136615538183,1.48056607328185,-0.9184890868513083,-2.5138299087195093,0.7314839699527835,-0.19988912173001377,-2.1823471298262427,4.857951530453158,2.8216480068859022,1.638025001811633,3.7067689012959315,0.9903621070157258,2.4061995651335875,0.7498440663415966,-2.3861091787097033,-0.1354882077330592,-2.240430839368148,-2.9681714472602794,4.363564213416237,-1.047277773168601,-1.0750968566626213,-0.8107964365985394,1.8716359543364112,0.4092637179900943,2.272689069273924,0.3331486027917484,-0.16778544580738927,0.7781229607833197,-1.1032654789297145,-0.6114980933572685,3.035897075905331,-0.4943292862235898,0.8796693975145008,4.260457018102391,-0.6845307549587645,0.3684134315640028,1.9561329004610322,2.353705436465225,1.953943547666519,-3.2179389935792404,1.1906825020163159,-2.2768030283018224,-5.8375766164187315,0.893545799816972,2.54463162519905,0.5041222897614281,-0.3842661946861488,0.6995886305945296,0.5146362923739797,0.31632115528091637,1.2910356594063748,1.5598741905416609,4.884260557158093,-0.6423587828702688,2.838389776674059,-1.2700993898567943,1.7451951936513739,2.039258467974398,-1.066733883186515,-0.7041913700079323,0.9286292787751486,-1.746634913282965,-2.3641883360635885,0.15081493933448795,2
2.6557951187872675,2.1213983378451364,-2.5324837115988754,0.7869241050947818,13.841729467919102,0.24361589777038184,-1.096422427965825,3.1895051811741713,-13.714507319289407,7.198220607633373,-0.6656379214535313,-6.5957378134093645,-11.612918979026334,-5.3180749965340945,3.476180473128279,2.7331486556925273,-7.8683281071902424,-3.3953152737768026,-3.3187062471801623,5.113259519346166,2.081248452212214,1.5903257300809241,-1.049648249880737,-6.315427872245106,7.513660737705147,-1.6314093529407183,2.445977030384169,3.2097942636538948,-0.26922215621018764,3.7187872990939668,-3.0976690129450235,-8.415574096340835,1.0467964792080149,2.997019200058023,4.838278891811838,8.102639136572108,7.3941775788399156,0.0021905674897349584,7.389097064641035,-3.5692268880408995,3.116953413999906,-1.8519538366078379,-0.9321538546680016,0.4251897631960147,-2.4382521990865698,1.2153947769627382,-0.9826656610848234,-6.525977053532426,1.268645512744346,-0.6364515677510548,0.19901064615012354,6.0037287262694985,-2.0226832031763022,-4.96755161109488,-0.31753686006126675,2.115258880939048,-4.325665127790694,0.22793421678115944,0.43434205775750395,4.922555944785484,1.2406865029299283,1.3344864683951356,3.582940746366414,-5.830407434085695,-0.05724259176622099,3.050132938421598,0.4132281511751049,-2.1228541929946343,-5.269898241576245,0.1330070819243761,0.15736196790530693,-0.8020457581848962,0.9660418262312183,5.394999657505792,3.18919804050059,4.221867003355951,-0.10109413211865399,2.8767863862447385,0.7681085883495035,4.700738286125536,1.976566145425925,-0.9626738384578507,4.5655257519245,-0.5520199343274728,4.605022060255916,1.4899757656143502,-2.355606364121173,-1.4582857303931112,-2.2958593844619894,2.145608661679412,-5.22561968909936,1.5609630370376757,1.7102247709029585,5.744628281121996,-2.7579687970590245,-2.961409049762447,-3.8688316974209487,1.5721124535905309,0.27064888525188613,-0.07154216547865679,-0.23110230587271297,-0.3999193828401053,3.2514051354655273,3.2447554747571226,-0.7565783309551659,1.1792219829206223,-0.021333556387767107,-3.1482963522406693,-0.3530745454802034,3.6221475809025003,3.4317080008179466,-1.0128413456387295,-2.2096875090897985,-2.889940309163288,-1.7323404008085035,1.7665883175617672,0.6958595919957511,-4.159001662165625,2.6655689034573067,2.2078677868095316,-0.19097522606470543,0.6569070832031422,-3.9491109371750257,0.9501306978891587,0.12213646068007517,2.6071358139604217,-0.6213081342736977,-0.21560820741577255,0.847348726477017,-0.18481675322257413,-0.270059873776421,-1.698478162736583,-1.442768750554081,-1.9034764125681198,1.8827244988412801,3.1650040653620906,-1.3272318453172016,0.606127659240482,4.937044363785663,0.5621252298454504,-4.1309874620733025,0.8224766003859736,-0.11013535719855748,0.2474655936810928,-4.08311314904841,2.544015785593742,1.1056959153153068,0.9502298752780105,2
-14.695663653709708,16.91374927487948,-1.2041224713662122,-2.8515780911240753,1.8178653387073744,2.2542762241717726,-4.517795870288455,-4.353458435160576,0.16561542835143855,-7.306732703925045,2.510115827180577,-13.343355441508798,1.1193551886123219,1.2974437725698924,-10.646113094585747,6.132923453729106,-8.367663929990865,-0.8362910315105121,2.279539774791392,4.191096608629453,3.3482203916416777,-0.06442959843612038,-5.398978457530753,-1.5611230489131862,0.7238518510383328,2.3619738260879095,6.895174142960389,4.396368734144855,0.8528802512267512,0.36791145986865653,-3.4888590989003685,-0.6241453661853915,-1.1140677480238685,1.536900606499487,3.938870700383112,-2.4955037960437454,3.809980996995161,3.856287377002285,-4.787289716733074,-5.071466307032283,-3.846096906672864,-0.2318975679111034,-5.405124175342515,0.3160706981706193,4.266582183941699,2.0174169165716407,-2.219749963511465,4.571276663424569,5.764205135136243,8.966699519399823,-2.566860106729206,3.8991044988901606,0.25517313431143146,10.572434622688966,4.582374598562346,-0.3059535124951716,-1.2272225682249007,2.933248464462872,1.3751837930832655,-0.49635037097269313,-2.0155755353225238,0.04809266266306212,0.048812970896419214,7.173442763150296,-2.55922301273612,2.889018005431743,-2.321773776253118,0.8865983264990995,-4.527762029021573,2.9530024660531384,-1.817302528858341,-0.045741721705125166,-4.35105033844615,-1.7450799015984173,5.439987823299343,2.8510840946450946,3.0965828024728212,-0.6754604840282431,1.3924452980984054,7.299025486959241,1.4819076141339442,-0.9400365819884958,0.20876885511279092,1.7021103469598147,1.4282429347765393,-0.6666075282059709,1.4383744283623614,0.18432963113916678,-1.6760554694188223,-1.2856530849374308,4.7873006048031135,-0.9377342998162761,0.23292260338695464,-5.620480233682876,0.06746060384143475,1.3316022119083903,1.8221487539266574,-0.21605762919025545,-1.1482391320567664,-1.0285083987687758,-3.2533891361947824,6.443372675606597,4.962493678952625,-0.7456598124773473,4.16039720993714,0.9041091356594716,1.1827221799839096,-1.9867008688922592,0.5368001054786248,-0.6746283214166544,-3.801781966670191,-1.2013508441798588,3.7312546364061756,3.8309671798247322,1.7396822055795567,6.130543505162475,0.5891981987828251,2.020241182025307,-1.75397547017568,-6.700767769108467,3.4905021831107432,-1.2151665810461811,-0.20363045697331597,-0.6908134892778606,-2.85682922972112,2.217256779311053,4.404484651463361,3.288743127672465,-2.0127334689720566,2.4828503747490065,-4.251286720350059,1.3597229500366252,-3.602123542000952,-0.9337805210492839,1.8172013363261403,-0.711785755683872,-2.3134081430778,4.157114937447067,0.24762762411411535,-0.5591871972979879,2.449948515506084,-0.8352792285289564,0.18108673328759234,-1.2717853688897245,2.7523127882626732,-2.0499497325144564,0.8741806459707903,0.23426782213265132,2
-10.768267271985575,-18.081307336309287,5.756179126483469,-3.827477628299212,0.9432943674612788,-0.25221615361943406,-6.604291571267319,1.846852059825475,11.755268308588558,1.8384493980158114,-17.93877671434262,7.5883794015633335,1.8979739013996861,-11.130493420752865,1.158266643383987,4.780500425418155,-3.8874614072606546,-0.4500261316169412,1.1104684710943806,1.1711177951996847,2.275505586823307,-3.066652620181404,5.721299412192976,-4.435851265844161,-5.5988900510924395,2.865199390662831,7.1256030960833465,-5.273854600325985,-5.570959941884145,8.088763431714085,4.033968222046955,-0.1006538037649983,-5.729687696674528,-6.485769119422058,-3.7202139395005105,7.111500701037254,4.114896169126412,-0.7878961663057085,-1.6987279022664583,-3.296292124143581,-6.208101810154501,-6.931634791962663,7.544554605033263,-1.922066099355773,1.8104918800628464,1.1099137872972247,8.20890983073653,-5.989154362277649,-3.2818309344589,6.519953096391346,2.9935503679373623,11.077892976642731,0.7257007642213761,0.7528734490116028,1.1448134821111242,2.687624127190474,1.2916439446985948,7.231403594256375,-1.4049174813361647,-2.86406532001087,-3.5119009543191098,5.321462040604625,-2.032750600597543,-2.0620611733776393,1.8116399647220702,5.776759736318747,2.7089940072898644,-4.25268661411549,-3.572979729982745,-0.5790881257174312,-4.868230700903533,-3.8839436422529823,-0.6842397849606332,3.370571538604115,6.361804109065174,-0.3557814812216781,-2.5594871905762497,-2.2131918276663174,3.005552484633778,-2.177575808951331,-1.6953388603039992,-2.779204215383313,-0.4408587953942874,-4.37071395089567,-7.909999896453421,2.1725474653019927,0.40531166292436854,-2.746847861283094,0.8894846496963585,-0.12656567249681036,-2.817280412250725,4.580628190043277,3.224509217510843,0.9696650847814957,-0.5247889645565667,-2.2982330671446984,-1.0268269871663758,-0.7358845720082954,0.29409276647551696,-1.684759312287636,-0.5325832906982515,3.0562478980181402,0.5576796027962565,-3.369515524002039,0.3145887319880232,-6.879496177293725,-2.073572607293456,2.1113319647660083,3.5438380584494587,-0.23159381471596568,0.8186091383621553,4.592699198657791,-0.04929361705266965,1.6406473750569868,3.377830225371858,-2.857718836106209,4.6230042124753625,-2.5053975577543945,-1.2137425118191567,-0.12156224552905098,3.0528026080399457,-1.0340492569466095,3.355201700955839,0.8391347658711317,-0.13607997524510948,1.0369029252537114,-1.3864775923603767,0.13183875583872168,-0.13299025196976472,1.8964737919279726,-1.709142507584204,-3.2596885506817075,5.409870275466598,-2.485503157187599,-2.2220263569007055,-1.3978397593493233,0.7917270666075387,-0.945862337803756,2.245748369394616,3.914420253907318,0.7000718496591721,-0.8387737774732597,3.995003814611709,-0.7795324069632998,2.427349933313563,-2.664345075158365,-0.2254198389139126,-0.9334184133805914,2
-2.15164515915637,-24.770871728745995,0.9411117787390056,-1.6291027796547162,11.501942559728121,0.6747366688324541,-2.2052581034293266,-1.312877969287927,-2.0364642045307666,1.5990874187482222,-4.618361155863313,8.28039077302629,6.340142319853822,5.2215122566332886,-7.133943428155463,-7.640509906403904,3.9427379498785466,-2.8763811773282355,-5.328206041635351,-11.19527049236284,-3.757008358765401,-0.17184446986424776,7.615000835866315,-5.666398423709442,5.798127430560175,8.020227884365477,4.2457173200688825,6.548982059977229,3.8892781473518823,4.086546774498801,-8.056039049084802,-11.887070733432536,-6.875180441055473,5.555440714593729,-4.005299688999387,11.350001572536918,-5.284568401195468,-1.4207848962241423,0.6045416272709854,-6.612294577849915,-4.5635864111329525,2.267552836655117,0.5377336374478352,-1.719522525439841,2.4818601654436434,2.908845603742159,7.463003328522462,-1.5327472230954147,-4.778561932072136,1.3194854981807025,-4.557273787984,3.9877006235061883,-3.9650135862340727,-1.227681035790834,-3.981032359869436,2.9703747004414853,3.774668539590004,-1.778722139419158,-5.581366474600277,3.8399937792803054,2.5424549626843254,1.927091915966469,1.0179819874575795,-2.344268232794676,3.552282143014869,5.562762939116302,-4.074474077615648,2.3324504052001633,-0.7643136448283279,-1.2361627250117477,3.2034596049075375,0.7276834144983592,0.11349659677878268,2.3963871325979387,-0.03557427990941397,2.5792528533569112,1.5167398490025552,-5.928245805467418,0.8530444102374161,-3.3569878863478193,5.333992582616228,-5.538989911605617,-0.767530861150375,-0.8602253454454176,0.7788726362726942,-0.46845526070428345,4.462408312186918,-1.1939606506390208,-3.7207667493644023,3.4391941748110395,4.02800530168922,-2.7968416056052394,-0.7791318685465453,-0.8147041080026513,2.4240968657120954,0.2670307486418883,-3.220757409504879,1.4561724716327868,4.053702516620179,-1.1017353947075028,-0.8030471331803283,0.8848744759438495,2.383069216167221,3.9941862894983773,-1.320731119187253,0.49796223772946224,2.3834316905610455,3.125811870357205,0.5051310171637657,1.1251351105640788,-1.3407788837316668,0.8716636912171486,-1.2364339109465674,0.10629366855608488,0.6212304269308832,2.0222019445958597,-0.16713633779936077,2.302296735900392,-0.9779880070397579,-0.6253605366996937,-5.618728780618415,3.0805223779751962,-0.9109235331532831,1.7554192944524114,0.40807530518934915,1.4847866155821539,-3.5139736940175963,2.4267087558024545,2.206044294558036,-1.2363842706911152,0.3723201636697118,-2.86776281439087,2.4477560531196505,0.494417778923994,0.06703655145344466,-0.841258138911423,-2.602077052822423,0.997933990876712,0.935385556749772,3.1003627981943525,0.6641243637802933,0.7623604121496284,-0.8348360109977294,-0.6574447803465101,-0.3728266816545779,-3.9246822845803604,-1.3412815513294796,0.6052526255313079,2
-2.5921581390068757,12.879347130101413,-13.279559466790191,-1.682660516213799,-4.467621763598185,-1.1993990777790797,3.641664101496065,-6.502325691146129,2.3324379005221987,6.48068848263433,0.07695982085927293,-2.3872588455297703,-5.439903102052857,-5.719202485390838,-3.289961616909108,0.08536939985182306,7.533131211567809,5.78609831697233,-7.697237700100224,-2.8703531534266684,3.387255379214899,1.4943588759865465,-4.583129084624828,-1.2511580616473985,2.390244185074697,2.6025802303113177,0.021212539908680727,0.4461066767297445,0.1433005310648996,-4.565788468010125,6.135234132969903,-3.3428468553606723,2.5238707239405054,0.39213241467730964,-1.479270936735962,-4.232557773870495,-1.1071774208424,-4.226873438421716,-1.805987770655337,-2.141768648295212,0.9339516305645362,-4.520531040247446,-3.3675234230676927,-3.413403796632148,-2.99200766687954,1.7922366594940768,2.0014979271134963,-2.7822083007925924,1.400977956711389,2.406077831467534,2.7982194080113274,-0.7201371980369613,-1.216283355630533,-10.402145124815997,-1.2646461846416335,-7.7905690402618255,1.298171919283295,-4.207883349969021,-4.260670730921665,-4.439129896393037,2.03058985281756,0.8310434775344328,4.0900498222378046,-1.4919149891272079,8.76083910253717,0.14068005939700207,-4.179113414618931,2.5544445353158367,4.735700183656618,3.050428565277523,-0.092342324412245,-2.1277717448436735,-0.5190902042416096,-1.722208444240227,-3.1167269492330867,1.3773891308640678,2.9643333608327804,-1.2427078373799803,4.98482006852524,-0.9536528591854568,1.2689163640171892,10.69270132756898,-2.4663777504949866,-0.5023782802281376,2.369960303898393,-0.39796247534755946,11.423252219834504,-0.9916095857400727,-2.9028660339760446,3.5764335974829047,-0.018334642440727595,3.6975344091581777,1.0645066015703168,-6.459811005976868,1.211565500990026,-4.169950525723507,-0.2503138163130007,3.582786281417215,-2.171573197382092,-2.313736709217961,0.6531982283747365,-1.3035449835031283,-2.8433512103366487,4.722878650911323,1.1430005272066064,-1.0656940974729707,0.9435581221644317,-0.7623387640613939,4.140234772962686,1.4285860998264712,-1.0471444916537767,1.8202799990588885,-1.5949244718852906,-0.09978839197448984,-0.8578617386328043,-0.7089923536523712,1.4396297483295544,-4.709463532985882,-1.5369935714347922,6.3898620392070145,4.705254134513535,4.038174063445484,-4.943467696897544,3.7656294758099653,1.7698502373025227,-2.5822321014778145,-0.3538472455836482,0.7945118027177923,-0.2612663320072093,0.3303018104552964,-2.4237261963313346,-0.9442458090257355,-0.4380839658395853,0.1504906466539376,3.1753483289578637,-5.082262644922606,4.559475933512845,1.7004408144534386,3.1415186096876084,0.2168936012146942,-2.225735565994411,-2.442666237771617,2.358435851723754,-0.9540980027084245,0.32254811887882273,2.968830657872743,0.16548525957857724,-0.22117830198066768,2
-17.662636799146696,4.02625211193123,23.223250535810955,1.7413899319135355,-8.010460284123548,1.151019655071029,-8.71463965283947,-5.993701835212645,7.198953406862976,4.376461531208216,8.86091769385685,-9.840339022490483,-4.780947262468644,5.834596305252782,-4.587538930376484,-0.12406566563166573,-3.3835823728996397,-5.101995163183626,1.029488892048273,5.078301770397535,-5.364275047020493,3.5918734733764888,2.293090461622109,-0.7785377539184553,8.358546566983728,-4.824037870589821,1.4287752372003764,-3.0574039512775886,-3.0393528049176597,-3.1046125633376853,0.7802871705135906,-2.153710348774164,-4.451502781030775,3.221060233204524,-0.6768213751408984,-13.402489312665487,-4.678123262977808,-0.6821733958645216,-5.247565491643723,1.98544109660527,2.137865069178639,-5.147090400538044,4.187116410745323,2.9639941059904573,-5.914977667122318,-2.1309298993946424,1.8102387779673084,-2.0196329904391574,2.3219259853280607,-4.675486526486414,-0.3503657861888303,-4.449527696277007,-1.7184553180000772,3.95463412663913,2.9056060310170824,-7.360442285129184,4.274308747928739,-0.5880166634106625,-0.8478504671853688,-0.9910156822071753,-0.7834959481983568,3.096063930176168,-3.5359245652312934,-1.4814204234060238,1.3796926537344238,-2.10536747652851,-2.654805045019929,0.5323063453623359,-6.010688149853609,-3.0833935458819344,1.202440672211644,-2.519933983690112,2.505641094133374,0.884667407693709,-2.161057189607761,5.388661687339157,-2.8703699866175922,-3.543243688365958,-2.9981873662930845,-2.4900838151735916,-2.7818038209129163,-2.7838159702982948,4.372328270773986,0.39837855494693514,-0.8647781844093135,-2.347832893689228,3.4445410729018833,4.248604151921687,0.002647328858933747,-3.4404314331429244,-7.549747230166786,-1.3145397289343654,-2.130867668761988,2.9944279387618726,2.4681457253278616,-3.390578333176313,2.3580533741340233,-3.4905682702430543,2.1107856668661262,-4.346872047742747,-2.195194910663704,-5.06362460033382,0.8284370932175258,2.2573069793611573,0.4207640613319574,3.1992307905558484,-1.5721286785449686,4.899522459660923,1.95460971468573,0.9494955127776612,2.341196076244783,3.5370797107058167,-4.395697741385776,0.6435020948399207,3.0832201288861354,-2.8763562632623114,1.7825913494125196,-1.077964277251738,-2.552249307667536,0.183733406410642,0.5106050049846437,1.507976739636798,0.4793826602095848,-2.070258304499446,-0.5778522557397772,-2.224731967104486,0.6083851186058009,0.006569073622334019,-0.8423844125905552,-2.82984476350878,1.8045670752353584,0.5217298881596011,2.1059497161751954,-1.3238196611953064,-1.0224652136650216,0.8011853403862377,-1.9537564212427236,-3.7272727997658475,-2.315620318698173,-0.2755965555837172,-1.894438449300129,0.4323262848723986,1.2743105314235688,-0.44458615137048263,-3.2624716869936847,0.41876261736190284,1.2945466731562816,-2.1668035309019986,2
-26.04662541768102,-0.36086954982015057,3.6880917128054644,0.12050637905100108,3.596754958509016,-2.4914283467320772,-10.179503567832805,-8.230620472679096,-18.52182786964882,1.94956158481707,3.4258555715768777,-4.467149675821463,-13.129074413329032,-4.355313655075216,2.531951753926319,5.724637835183898,-6.060768728154125,-4.722272107237518,-4.7830051667041715,8.079305881974765,12.010664103444359,8.120027690209929,-9.321178103747497,3.6205228405376166,-4.667821281844722,-9.839009340643914,-3.951021304205915,-3.60286023748256,-6.389509808504941,-3.8399243985426863,-1.4518281459916569,-1.0708676487494144,9.395525846179568,3.0078030827387554,9.392551967501646,-1.0115368224644983,4.631121015067924,-10.108065955915336,-0.26535991669488734,-8.195711081040422,5.05474626165826,-6.022894137181934,7.605819813145278,-1.4184840211797738,4.973270074811624,2.813002272240162,0.5068231848514843,-2.312865054127209,-6.39456851713295,-5.1318439986670015,-4.159185702585391,-5.732949967661008,3.6559713343397706,0.6977947899188446,-0.07686663965311909,2.7723256180603344,5.4241162289278915,-4.845518002659997,-4.083465539505976,0.4742131052185025,-2.329075333636415,-2.108284439540519,2.004981608620033,-0.7871867097668818,-4.476284139787497,-1.2100214199046835,1.145483563410752,-1.721351653957798,3.061622305021692,0.6077966286657812,-1.005799538396518,-3.3176330835559247,0.9293418565262068,5.9528217142143935,-3.6288830252293702,2.390616295242204,-5.078672894315527,-5.377484915896034,-1.4459979497905868,-5.626844523807623,4.220605617121321,2.8447970620191247,1.4350856565013508,-3.483270996766199,1.3867381428727694,1.475177773065699,0.1740819463666092,-0.6510961599312499,5.279904246600006,-5.393405039722075,4.249327707421741,1.6448421535107782,-1.669596881708668,0.16288293658603226,1.3574986575058905,6.9435542483576596,-0.5440136803599918,-1.4434308977727044,-1.7751536046764298,-2.446917490863406,2.370241868003975,1.8550155297428683,2.801646023692706,-3.8904705247744023,2.857165797205019,0.46418973432725535,-0.233387402221449,0.4562204989484225,-3.185681754236246,0.44047178401054093,0.31009036552002484,0.8677648247114231,-0.20440070300446012,0.11408837982684786,3.078787165229264,0.8232417853266827,0.17965975012365762,-0.22103455212466774,1.2288464127533092,3.4070523921358276,0.3181747204287934,-0.5557984917158473,2.3207461758103967,-2.080792163646694,1.7173928167723207,0.059359917905639784,-0.3168416554946105,-2.9013420788185473,1.3482130467348705,0.5141109864392791,3.526693323928849,3.1959690570353567,-0.7326265983276762,-0.9465693701879383,-0.5701129073278821,3.0345756783604685,0.8028318091564827,0.008185567734702002,0.13522759709794294,-0.5534722325747016,0.04478566056000683,-1.4300442585938065,1.152693775322751,0.7535267684431529,-0.10428520398880346,1.958202916700172,-0.007843805839738476,-1.610701377134277,2
-13.536411172479285,-18.582645920585403,2.3508101176089946,5.915327541719138,-4.717133596765956,-7.220134318126331,-2.4032141423826325,-4.387753449330688,6.931648004485579,21.43686058328627,-0.039721069101851504,10.421160360381695,-10.733215108240731,-1.8896733985814909,1.0247974408902258,1.1283079801867988,-1.425711316293599,-5.385469221240734,1.3854020577692705,-3.423350128980321,-5.63730797622434,-0.8137414481225345,0.7328922607722584,-1.3748216147574772,5.700440501122776,-0.21847796405227288,2.8401254435030396,1.7600363088079498,-1.1122678021846182,-4.2705429131245625,-1.2453041540193037,-1.2630949857455418,-0.8796514834072623,-1.7254086702814038,-2.3309209560454973,1.702652775153381,-3.152936421451523,-2.2273102870575556,7.467185084389754,3.4247936222919693,-4.851836063687466,-3.8672204720321672,-4.367402091057572,1.4611471042122885,7.2480110944158,-0.9118007432007696,3.460037501972614,-6.232603173392586,2.2203574161644584,-2.0073196118279535,1.9847676283363047,1.5405120152959737,6.848525909815771,-2.6289782600475835,5.155656903898932,2.742390272184362,2.236878226462383,5.97014136608699,-5.2508654346384285,1.825036907344082,1.2361773266514737,-1.471882696001804,0.7186534075632312,-1.873430653226558,-2.885297422684614,-2.0354590738039975,-0.836958665258195,-0.4750431172342661,-3.111652934807655,4.436294244210701,1.4905277207892815,-0.3323703128858766,1.0076740386676029,-0.2968753896592684,0.5972903846595753,-1.9033682201978979,-1.9109511888962107,4.366901175407032,-3.0716931149479847,-1.84223489173814,2.273264021081851,-0.14942780187685276,-6.3829743864202415,0.22385488534506193,-2.4731532876851343,5.615536776937628,4.546061670199891,2.3953500741058718,-0.502886575638205,2.9771250888016887,0.3872651817474149,1.6884724904978685,2.2443420258479008,1.1626162417941557,-5.524159809469688,-0.13719059517116833,0.2918432705919545,1.635235798394605,0.698081041229291,4.895347154423525,0.9536263296249231,1.7890696765430276,-1.9212997984212428,-3.930488628035872,-0.2950263239941743,-1.7856124792326442,-6.117775659007381,0.10071232197311682,1.919588890536678,-1.309306930298794,-3.831089527863875,2.3183757397581806,1.181226077244745,-5.906802479827573,-0.03799121563233564,-0.20013784286083622,0.060122177305752623,0.7442788676114331,-0.8794452042138754,-2.557186666220966,1.0997974384122637,-0.6116957831801979,-0.2874017988595372,-0.8493441752213775,1.3634380179157055,3.9147623912700533,1.6137681097750392,-1.6214446180331648,0.590167160411228,1.8493545727747944,-0.5241695418994773,-0.4021866738376446,0.28604312715096564,3.3076041918621875,1.983273550771226,1.3643555279014559,0.8173860852948266,-1.0251383017116458,-1.6909822630624636,1.691481788388029,0.9607043050826888,-1.1612386010580495,-0.08153292909799485,0.11141993111491064,-1.8139376009807353,-0.28352663965467284,2.285722335428832,0.2353568496665568,2
-13.826448100321604,-26.734194748550088,9.8861164404722,2.214602891466828,0.024217688821863596,-4.439657844462559,6.261952544325373,4.071254229351627,-0.7325027086141426,-1.1395351488342995,-8.668757478151328,5.099060258129032,7.647909578011111,3.8027143219081836,0.08558832819758959,1.2800151030047644,17.64048880631489,1.0778867279020223,6.339897944630592,-7.1931694021584205,2.485256506519401,3.4171823608696683,-4.052410070513699,-7.544951111450912,-10.73225319814184,3.6714391392401495,-0.31376671063191386,-0.3643807848654929,7.292817314774513,9.554864091119041,4.300117087604332,-8.30504472755701,2.904538811508709,-8.934282076530824,-2.5427310633441875,5.238757378701092,-4.654676112702309,7.764262189413648,-2.5249474023200222,-0.9804636596679747,5.573313785911433,4.153646297375127,-4.4164362799790755,0.9085610859506302,-3.480072450148117,-0.5347284687015608,-1.1490238617622173,3.895713488553133,4.158201939621343,3.8739224505054968,-3.7627100514853473,7.804776843774226,1.0048064384833624,0.2060401960867367,0.059804453220583385,-4.977297166787804,-0.886484561378277,2.5320803324852412,3.4479721988485847,-1.325335604589819,-5.469588571096176,-0.5604734179991057,2.4494156703654513,0.8114406026952815,2.3886488049240793,4.09378073387807,4.8152862014358995,1.0591869634551785,-4.519941252555695,-2.719970115363895,-2.4218814420229964,-2.6756007961813837,-0.9894921121984429,0.09438777378573848,0.026057355976646407,4.685795706341867,-4.251841883519902,6.328116741819667,-2.5248935904282988,-2.4312025663744117,-4.342066945742145,0.6572222164724362,1.1563992901051716,-1.7691002230657111,0.4078106588145725,-0.9968273056957403,-1.251254178791678,0.5029367950545426,-0.6004773913375975,3.361207526477658,-0.44722264949331814,2.5504679758770297,-3.3810744970918267,-0.521993668939044,0.07707178640183424,-0.29462953086839594,4.93941652563278,-1.5503134601709236,-1.7933718009711355,-0.8313022365831837,2.3420999558063182,1.2329616493996214,3.8942495516587132,-0.8215594132618643,-1.9339186112027322,0.19075504007311997,2.4627476129457935,-2.557480106901277,-2.925977767557944,-2.0152248558834596,0.6630785958446375,-0.40085788590904603,0.46472910676498846,-3.013603917272567,0.44752936105558333,-0.47152879031941763,-0.7367920300419789,-2.073052113745909,-2.7133032609400694,1.218187276451205,3.2060102480600934,-0.26714537345294315,2.639523140394702,2.0747148505590194,-0.3133152837642515,1.716098833512697,0.11275553605648023,1.3020106756530687,0.8632308603728335,0.35747132546386656,1.6287897976809877,-4.440145144106191,3.0349434960763175,1.6794188827240355,-2.036599806167706,-1.20457196655931,-0.4813244850208042,-0.722776176651569,4.212884040453226,3.129610280223397,1.9621721471386486,-2.7928468921568417,1.5622804450409906,2.039095365690778,-0.7017710847500941,-0.6771682214920431,3.3193901497984926,-1.5232412440390544,2
-6.171134183402291,-19.909713984635324,7.3214155833656305,0.11615999368870523,13.81326219897175,3.025898762068144,-3.405382024790817,-6.037754843629463,1.6890675219310014,-6.5053641021990245,-7.988031867960863,3.9450285552301545,-1.3219687889226361,-11.1575219830602,13.326126772356679,5.458676420608387,-5.013179810505887,4.05174987722982,-5.654716498410176,-2.7138982207874274,-1.4098501608792733,1.012305521311145,6.83219859926508,-5.814453029345424,-6.780306552569596,-3.6604995800014386,19.04076814685102,-0.36134399784805643,-4.373312365723491,1.1297972263136675,1.5250531975980717,-3.0599650764350153,-2.0285653086234015,-0.30654087020682647,-7.138663858653133,3.8225080793546145,4.384783213102275,-0.414535574770513,-6.784811399185447,2.258279506700922,-2.274200663357351,-5.894230110944978,-0.12940025818098924,0.5005464376573521,3.921746666253632,-0.2286379955873778,-1.1157932420637116,4.972003255730062,-0.6760565822457314,-2.1556423923532058,-1.4418181197490454,-1.2299043528604503,-0.702930935199338,-0.7930966165869962,4.787960992357413,4.386310048283357,-0.14506343928826404,3.5981019517847805,4.066549756588109,-2.239435516742992,2.549000533167119,0.8624240599246894,-0.9990553217114664,-6.036292539093058,-2.287431875329738,-3.7942033936962654,0.7675538318898076,-0.779418754360624,4.185606351719261,2.7424720022675295,5.068530457725687,-3.40115696115139,1.0665540151043025,-4.725718881199692,3.3721434592357915,3.0274678202397123,0.859369422525494,-4.90465527945507,2.453001211927546,3.8506030473022275,2.722022074314826,-0.8303838480742812,1.7201454941312424,3.955303455577839,0.9496123589230792,-0.32975186589528727,-2.8710893719129236,1.3713679506935619,-1.3144104073240144,1.0875835672235934,-1.5643442656882656,3.5832072530519863,-1.5613427874444654,-1.5820838461541527,0.43994653736560696,2.315921742181931,0.39059155116709227,-1.4388085576602772,2.65158674992328,-1.413345488810218,-2.531246287260458,2.7045039626281184,-2.1029213548073735,3.0543324966073593,1.0532860606633154,6.856639087449301,-3.235796743537717,-0.9174974260068495,-1.3992971773200036,-1.3851199314596154,-1.120514440237736,-1.325534864458388,2.7728101990340703,-0.09525449326824209,2.87004570125109,-0.26248084735031363,0.05134990513970841,-0.08574546218514587,-0.2524323037552382,-1.3926029892465854,2.4187444544807715,7.045607670594975,3.4020175898658884,-0.8939366314243435,1.0915570533898074,-0.11057445811865883,-2.5219855269968416,-5.981341422840049,-2.393257283911682,-0.5178412218504789,1.850511941918973,0.47649542899600217,-0.0272303484086221,-0.18883154386338752,0.16825758791177545,1.9523170469007987,3.123203200612072,-0.8124355599491827,-1.7978243229346398,2.8631900193755606,0.7057984889866048,-0.10052826802552887,2.173911087204439,-0.12502526170674044,-2.378196975132477,0.3914528365856177,-2.5781414482137506,2.3452212240287698,2
-14.98365810194266,5.621425446204265,-5.542328312088587,17.390239493080124,2.5122431325324954,4.224159448674909,-0.5003423880721422,10.658880291526598,0.8045620694492235,-11.778396147061018,-6.879997447218345,-9.814864799337316,-2.8025829813714433,-2.8606272437749722,-1.4667272800409064,-2.19522182411796,1.5650516894477242,-4.494962252908023,7.029859684652973,1.8378522214218065,-4.034520921501188,8.899526831468034,0.2917916123661629,0.2513707006898657,-2.928257954143346,2.4323321233904234,6.252121294864754,5.466274763672532,1.3228606176096414,-2.900502147246658,3.109601045216878,-5.728876362415623,4.79443525465619,1.0833183038546015,-2.503535119500518,-0.9574575726471293,3.3736538467043156,2.1501933522080288,-0.26303222809198007,-0.528946947391371,2.439567760992718,-2.1357563235791917,-8.224583318591188,-0.8564309383745514,-1.355666990136407,5.046939154118326,5.316407586823561,5.590861966410159,4.550311377452609,-5.879132638329692,-2.0489608185155044,-0.9104873469948301,3.733950894818308,1.8570862148717389,-1.3219827419880454,-1.3135925884356343,3.367361147373154,-0.7838868572379702,-4.060031755979296,-0.5742407601833113,-0.20442645556445846,6.082723662759853,3.3815485643946133,1.5675223066530333,7.555175611206409,-4.019794532049527,2.493059604909603,3.6414073366211,-0.688532177897077,1.4763002773187481,-2.4545339011962275,4.907768284363871,0.2451986090765517,-1.3874113018731533,-1.9695643639686646,-2.7817589062398924,-5.9937163364082915,2.844655170291646,-2.095986579248691,0.8594186944167288,4.245718324614919,1.8179394193138012,-0.7645710173516337,-0.5573217809104934,4.310194222530683,-0.633625838548632,-6.299582954020406,-0.7274663035812732,2.4354346378700913,-3.2714071917110634,-0.17497739772604962,-1.9726995860812682,2.184792458570153,-1.4141051608211215,-6.568451364753761,-0.7758538678160829,-1.3491955058165672,-3.2068382754837113,2.245704102785946,-1.8554786913177372,1.4743007012286944,-3.426558490311435,2.641162609319693,-1.7561907047339262,-0.366267428523045,0.8945141995857442,-1.9066543159331664,0.32905936113461237,2.649427001152514,3.345607240356954,3.0939710585949958,2.1963164626861316,1.9476152817830439,-1.3110698758009958,1.188114006498465,0.047130728046804723,0.34348925316420725,-1.8318309654113927,-2.9699787986646045,0.5113610566499096,-2.3574485653943533,-2.285895720574698,0.5703652889535233,1.6136461550499295,1.7932087506737677,1.1662284884527967,2.348190714903418,2.2236524865038376,-0.11948332383613965,0.3301119674658942,0.14282450258293578,-3.485682164431396,-2.3763084826143004,1.314114933815845,-0.9524589681696558,2.400292033779532,1.9914873655597154,-2.6025303978860097,-1.6578323162132598,2.9683759625937167,-1.334754251013028,1.8381018730465668,-2.6164324503649246,4.677553696957403,0.7788688125116452,-5.959407673555462,1.2061376395906227,0.4167419949770808,2
-7.970309828437101,-1.3300070129243118,0.3115834540943123,-8.912431647318918,3.9284333765546027,-2.5981775971273904,4.958299189361138,-3.5400652487381166,-0.7284219443397082,-0.039198276048456736,2.529867760559689,-2.2426796564297895,-2.8004602325076204,-2.8020195412045728,-9.638268660056545,2.506323399902145,-5.094396896614035,7.882961216117149,-2.5370597843672154,-5.446175005964549,7.6782935528605964,1.550817357719716,-1.1861252728672194,-0.5929383811625182,1.2647835065877056,-6.809813677060352,0.15334873424157747,-8.683039473854778,0.31061607450971207,0.9370429618794752,-2.9484567415012832,-4.666381459893339,-1.9410804080264663,-2.697844453935343,0.23009893462518125,5.675988814029735,3.410577629143774,-9.525821567348062,7.230357855728856,-2.4579144323386988,3.4082876808397495,-2.3411591239460003,2.8584081447453027,-0.35408427624521754,-2.3572507487365986,4.908463199701063,2.237667820191426,0.31237422010452043,0.9268905215929439,0.463067528255056,-3.0758893462752623,-1.8962291599185999,8.145923353537665,8.670697991512018,-6.927051747344524,5.38126051142045,0.6481326734164357,-0.3744135004366765,0.3141753396109298,4.019959407833323,3.208294037241571,1.0123421402339967,-0.701284534360488,-5.4956751492951135,-3.560490573931439,0.7360766069373927,4.934549569095187,-2.569907380343576,0.5360307941801322,0.5582358344575828,0.2845424470909678,-5.263499868004477,-4.8183407286868345,-2.100059410984903,-3.3555797066464437,3.446255054179062,0.6239271930281639,4.319707543027679,2.1849228995261885,5.632398945199968,0.1484522242213059,0.8338878104121662,2.765659979791158,-4.240088462256223,-2.402154407968501,0.29798858799055106,4.739751321534564,8.908844918732331,2.9095471526870886,-2.032932187238821,-1.0928859158282649,-3.4824515575307737,-2.8335384401459094,-6.255806710186132,1.8258324714188192,0.13419817996855435,0.5587191429988794,0.4041995697035758,-7.8649298846038125,4.334384001142965,-4.423083712722165,-1.7853478498676354,0.0242237113941786,-4.877309412709066,5.820663359897674,3.5753288994946617,-2.148664436281024,0.37827183128528546,0.8521992017264215,2.527287194860784,-2.2633199172035976,-1.7549785320531968,0.7082964308173563,0.7742226564884329,-0.9103246289398798,0.7128667705353664,-1.0152898570824689,-0.25792119800675195,2.554486088172091,4.90579396378594,-2.3232328312601624,-1.0737503148125183,-0.9898037844938029,-2.6710311584821804,2.4227956948429896,-0.5595937666134967,-0.8959809491438678,0.5203651117503137,-1.1408384559334486,-1.1760287072859945,-0.7303750134957822,-3.8155593785407014,-1.0855907256505508,-1.5950396523450738,4.5479126033124455,0.9099169607171252,-2.062756197851468,-0.23174637322672012,-0.7672450429742482,-1.5779995286258968,-2.0044361858029944,0.2588814032603104,-1.9972539132097815,0.21841628845357558,-0.9189504352942819,-0.5384887040624398,-2.016584286083732,1.7051068737970305,2
-6.6790243141439465,6.547167978162786,10.557016510975831,7.225818063748282,-13.568840331788373,0.5140091281693595,-6.331150261684504,-3.605414639610403,2.072785924475783,-10.661861695278233,3.3065542143479996,-1.914164757756423,-3.4552985721843927,2.3153749626588707,-6.48742122509293,3.593208800958895,-0.3976246407825613,4.102821218273124,3.3923282024996464,3.007984878782966,-6.495694248615375,-0.9418854369703399,0.6064741432716177,-0.8565778258912142,5.516622523371775,-0.5007415498030425,-1.5018644444755556,-3.0581853321559107,1.4595546849806,1.275953457288833,-1.9448231167203676,-3.4471985768439595,-1.053481440388086,-5.848243133402029,-3.9496071192728475,2.652519799891267,-2.949382729082389,5.590480008068812,-1.0552565717920437,-2.982900394701175,0.5869930952919618,-0.6133078151194821,1.5621317103467447,3.4562096833187295,0.008708796669130986,-3.7746423660534965,2.251101888802943,-1.6273815313515452,6.0507330332963845,-3.1195906304179224,1.9359362420613484,-1.6529079214092373,-0.37253377618813294,7.397233739956691,-0.7154085420807905,1.3961526844752121,-4.110122285763304,4.879005184321837,-4.517540105974726,2.743572302830091,0.6695498736391897,-3.338287049564469,2.938095348986044,1.7369135421750015,2.010053237636753,1.3828540320577813,5.361082720349039,3.337254700749424,-3.8625702564749327,0.8751908890075083,-0.5584731243868414,3.4371839352047555,-1.572566983394042,-0.5372564315264328,1.1988273855177571,3.8266473272689625,2.617913066092689,-1.931696584051517,-2.4737014209446575,0.812139778342605,2.056494578961027,-0.1710111875965236,0.29113504381776106,-1.7450740948317958,2.0755047438983043,-0.1369205768398013,2.1871558802941236,0.18696339976160523,4.524598891027392,-0.4014010505995408,6.135759552821196,-1.0670429805578543,3.5259619310878647,2.1495618307229614,-2.9299530048482056,-2.8470536432678393,4.947484323509869,-0.29587489814024104,-0.35964832358034615,-2.442547919717259,2.560819889564827,-0.7311443355183431,0.8811232958896509,-3.7437928417809947,4.133833201897868,-2.3942638501350904,4.385123281400724,-1.9421238727324017,1.3281142514709925,0.07128218304642647,-1.168856131996031,-0.0639957876954846,-1.0785914467884081,2.3253189525475313,3.523131267635956,4.850664941778931,-1.1639760003879822,4.356012647907697,-1.5303570315512698,2.529568301199505,1.5105461474567745,2.6815950551191037,-1.535433892450184,5.035864536772053,1.5642513040348975,-3.6888895107445725,1.3942318730640193,3.4131133004848526,0.45085732895162933,-0.3824724870221872,3.715834782921346,2.7500663818215725,-0.10117574275607456,-2.9798166769687513,-3.1269282121227184,2.784067844507576,3.4434341259175216,-0.6604380052415082,1.618044474774599,-1.3781904387355535,-0.5784177255716326,-2.9515055825199026,-0.2485942193884884,1.3342824826149922,1.6300469918459093,1.780100897887682,-1.4140769669902085,0.3705907234658138,2
-10.537019206895128,22.761617405948833,3.8897753617356847,-5.722942404035358,2.490601348221104,7.724310749835184,-8.70842213567723,-13.51682233569884,-7.255607158240137,-15.31210387522814,0.014408569943990005,-6.24964221152266,8.62620754504471,2.363733901749618,-2.536361078908793,2.678554801138528,-1.74507284697194,6.657020819689449,-8.465581198056814,8.928221241886922,0.7250663768772093,-2.915272877136895,-0.5532299817769386,-1.9687838471652461,0.6092940228588609,7.434535936609966,4.1243095795327,6.135533750733861,-1.6334533610398247,5.242212809849126,-7.849570935014282,-2.6884357152132434,5.605766096232101,3.291448180888237,11.561599305119506,4.057812956569138,4.936104643872927,-7.1622064793192814,9.068587580456079,-3.0932106896571687,-4.6770220552738335,-0.7130561504286466,-6.490694909368601,3.8283338975852903,3.8804399987043143,-1.5110472225685454,-2.4552338076472293,1.5045404721930407,-2.4919418910061064,5.630811368995484,2.1497007557511845,2.2301950798175563,-2.6904964884325255,-4.738522826404948,7.816380791316499,3.203656992816316,-3.184466521729551,5.044980753481548,2.5500755482257023,-0.5739223098296666,3.7369209138294344,-1.9835259786303165,0.23773871536520416,-0.32294961155279267,-0.741905226712887,-0.9638569580604702,2.3434523844619193,-2.035315002953248,1.5917535851507125,5.275518315650709,-2.5909428120727735,-0.5535459407224225,1.2424394693537202,2.9125260061277913,-1.13800961673444,0.6283048028016348,0.5144905496033751,-2.6801469040925676,-7.5732344926397746,-1.4262401515987406,-2.012069053770481,0.23719159144626925,-2.59861719318457,-4.645129785335446,-0.4263726878895607,-0.24406774350361599,3.026812910700423,0.4818380405740376,0.3160618251358434,3.72227570034476,2.3054934262876254,7.888870902334107,-1.2057208525714564,1.508212254314084,3.902567984665738,-2.6276693760771836,2.2407144825161107,1.3496622646169276,0.9204327787109612,1.0107182240348154,0.5385848187468482,-2.2750709815555274,-2.0208847929959206,0.43911696942754885,1.3079913324555117,-1.8055149353734277,-0.3962997619088462,-0.7559515209393489,-1.8127688651645921,-1.6324415880457783,2.341847513980495,0.34559411065687773,-1.1415373544481404,2.09516448104064,2.1148194637691367,-0.8076438991445398,-0.5029288950966952,-1.2259044678625044,2.789127507328755,2.2085717420953097,-1.5426619869415308,1.962111522751858,0.7060677483467209,1.7170558847106758,0.3290398489322534,0.26179922362853986,-2.2846853712269013,-0.26071263366527203,-2.150747948385151,1.5377815334487215,-0.8752818942965293,-1.0398410752043699,0.1128970330993567,-0.05047568126327679,1.824460690424261,0.860511809364883,4.578564626152349,2.7954396026727983,0.5272877622987798,0.04026158913592841,1.555100241495672,2.6619435461140197,2.6083708938007546,-1.5027325701000847,2.6518419573661416,0.025488817866990476,4.036034305088478,4.173771954993906,2
-8.235532818526462,-1.7442047095306108,15.290089006852758,-0.20249284508469123,-7.831682981746953,-6.280975007380723,10.02930510815342,-2.041479007457605,1.698885399902429,12.883321364210188,5.014522492528646,2.1873183338990554,-4.747279491198668,-5.205514927235415,-6.028518941811997,8.082390669218771,1.8008975848244135,-0.824746019697732,-0.3653194394023533,1.0586332304829975,-2.2560725174278184,-4.84256649298852,0.7115627485995302,1.6775495598843084,11.720437706417071,-1.1291373784443988,6.021716871398344,-6.080312410996169,-0.6667689463836898,-0.865126892479678,3.242394240831436,-1.058661005084044,-2.4771985074075107,3.4839899188173074,1.5302834334423905,4.1750450469128015,-3.9900428649864192,-6.207659578767292,3.4364512345833558,5.095228805076849,-1.9791768421631886,-3.4319240373647864,2.188569163543194,3.868670509266789,-5.049634468943591,0.3955860249741097,1.905690874220474,0.8140742195520541,2.113624986071756,-1.779045390726043,2.5621090678960017,-2.0810746473121116,4.244597678919442,-2.1049031721331835,-3.8278763655816346,1.199793353754438,-1.5979972616292957,-2.8357110191824266,-4.59145453526331,-4.411438891053876,11.028195137560523,-1.4966741409702629,3.5855719065498577,-4.514420181244985,0.7301255064190412,1.3985681928325207,-0.29494665160818706,1.1435615099526066,4.499050336563108,-2.7340082265885113,4.373078345812117,-3.7115717772670602,3.2941464603199853,-3.0757808484151576,-1.0365532545784166,-2.2086810096161473,-0.23387440024317382,4.260540960626924,-0.6882216625750426,-1.3275374770455717,3.002856277705509,-4.491411182828494,-3.0572606775923243,-1.010445637133716,-0.06586448468690376,-4.426539198942499,-3.7412092070707583,2.4477952264955563,-1.8505383075714825,-3.3142352894384586,0.4137400033401057,1.6915864455278744,0.2543456244286905,2.3246260890446155,-1.7339571007770072,-0.35501384882681214,2.2467660586112737,-1.1886354871295954,-6.3116898532049275,1.7459487325812626,-2.2275897177582626,-0.9282029779443857,3.385775716596637,4.003680275669602,-1.6460165484179707,0.8925255720025715,-3.399235164627977,-1.7423063885167687,-2.1690338734049615,0.5738465407714425,-3.0764482515658753,-4.038509347359225,-3.9349293640699345,-1.0334184775643487,-1.6775921044058422,2.1049315604222114,0.9643775780179918,-2.0013857038932845,3.973714977218281,2.4441027742310273,-0.44071667907985623,-3.8486539262414987,1.6504538682053709,-3.722557899990802,3.1688709888745836,4.734429109891963,-1.1194178327540367,3.076132366161673,-0.8669968722764478,1.501839120449471,0.359080957117014,-0.6456611988731824,-2.229963049698167,1.4392329288089758,-1.6980505192036202,-2.103151191871372,0.10313601507681375,-1.8745758199266478,0.5067491286399538,-1.0641007593333895,0.8751143223294923,-3.294482490127764,1.0255113796415303,-3.5486930130744754,0.3869292691920518,2.8378240646721036,4.5985584176409935,-0.1955883889253547,2
-17.393906489859877,-4.446736015902135,1.2725061692910957,-1.6413237671929615,10.142149131748159,8.468710162261464,-0.9347317243027922,13.869178348514975,9.344496366202037,-5.966137957693647,-9.306364160709494,-2.99453239681864,-7.134877679954055,6.917447905866227,-1.7170272484016156,2.5379217016016082,-3.5684666777083187,-2.594887770180636,0.29047405097952855,-5.224925335225123,2.9024904330466033,2.500361462379104,-3.2046683057980325,-4.6395003134075504e-05,-1.2487705378510976,-4.847160286393357,-0.0712612399744449,8.108931969499302,10.604267342226906,0.921300967139402,-4.127104001349455,-5.357188703889235,-1.99017728569576,0.6737525240491893,0.0021731730950950074,-7.155749965510076,4.686016878039959,1.6185036635094905,5.229981289440437,-8.936896565131786,-3.112288449210183,1.9674828616767441,-0.7313388034435127,-1.5889706085767619,-2.107945073587797,8.680892500260953,-3.133271554908567,5.9240364711349125,-4.8893356175535265,-3.601577243939085,-1.4315949852171734,-1.0444664015190177,-2.335579857492366,-3.8279658352669856,2.2127409749095897,1.9089185928081651,-6.065206504731848,-3.1536073111653122,4.040106047156945,0.05940819996876345,-1.3248714163685436,0.9714646732617211,3.8129614486635117,0.9246340523699211,5.439381592196631,-2.4388868797074945,-2.7362077700684284,0.8536400176635426,-4.01591665911525,2.3241975466495957,0.7504886779459109,-1.9139789900614594,3.5277756123785737,11.715370922749663,-1.7422979952055702,5.0041252655022435,-2.4457411186428675,4.420324992058403,-2.447680725983999,2.5369137096871412,4.85271528418749,-3.832570259953864,1.4692906653709121,-2.2322388920505025,10.239804352906447,2.0526434207957687,-4.378447267201092,-4.166547968933959,-2.404077389944769,1.5393889216519139,1.6294763235183423,1.379713502899783,5.8693255290444935,1.8861927192722059,-5.124533568130254,-3.1569904970428513,1.0683460256578692,-1.2654143616602824,-6.453832567346554,-5.724094059719821,-3.709928350565562,-3.0609665390867136,1.230318709188745,1.3555107386085992,1.5693996113286217,6.130029142432294,3.587260841551183,2.6047231886899547,4.865372192963504,0.5042671662320578,0.5540184643958564,1.8989846288838579,1.840900132544934,4.786760975533403,3.0254828288734377,-0.23519182218381682,-1.4106244540947463,1.5597633662858266,-0.31606893749581294,-1.091957007094879,3.3919755753700693,-5.06561884037884,-1.838707132953668,-3.9513857893681767,-1.812516839030673,-1.8414304789609488,-4.7855522967036785,-4.661526762049389,0.753270542882705,-4.709844658320761,1.0872272322177574,-4.527693498753384,-1.234492412516759,1.515279928534579,-3.053393025936201,-1.2171428795509545,0.4882829632899681,0.28300679761178804,2.345285842562516,0.8222763615579055,-0.15843211925570935,-1.0545061073512567,-2.6251977380871634,-3.0920151482943306,0.5934635849753106,0.6056526803629013,1.440441743450926,1.4687666392673078,2
-17.960167039457367,6.883941439780354,-2.547393324382788,-0.9020811489637404,6.734884299732951,-12.631755530634406,-7.020550271195782,7.155941565300023,-1.9943924279827903,-4.363833612542741,1.1512421786649303,-9.835914279347415,-0.8891945477580924,-1.4774893663042499,-5.635223647113163,-0.2039956230395767,2.7014375130550397,0.4606108940667526,2.0089006037894253,8.065676975188001,-6.260046611915964,-3.231263208509689,-1.1930461317114534,6.481075256819551,6.888441419790485,-3.424446710749178,-2.142998914434397,-1.873635386380452,-1.9875151488017666,3.72393266775331,6.752434494692614,-3.5517077427772197,-5.488833394205377,4.080935813847292,-1.7637938785202882,1.587360778549551,-2.7212428097915544,6.083716872893914,-0.016032453396162525,-1.5541054466829363,-8.08456087239241,2.9486202499204186,0.4645639307811582,7.398371354878398,4.4965287495143285,6.259014674218246,1.973714676467307,-6.534464350352192,-2.103821230682261,-1.788297420798214,-3.157707612255629,-0.203271539476752,-1.4465006719347526,2.1784345851433433,3.009796940524043,-4.738969389455318,0.412448005218378,2.620877351623173,-1.9055028506246035,4.680442302274479,-1.8010300544876707,1.3787400311081448,-3.9795793204725936,-2.4830225068842022,1.3743763206860393,-1.013172955575631,6.549162778476778,-5.083526881401264,3.851497598029952,-3.989864694214123,2.1103627315460933,-1.846216262758161,-2.2505744383748594,-2.4574260992715957,-3.173667231410217,3.1995111888653462,1.2365443654643027,-4.076860000044952,0.101577979745899,-3.1617132282806146,2.4750813326007517,-1.4750860999986046,-1.869955733955417,-0.9787735393519829,-4.196357561133374,3.770112207263414,3.2604274090565912,2.517097026559081,2.9007417864875906,-0.6276367895568431,4.187926018272008,-0.579063719855547,2.514715342183949,2.2772288632882516,-1.0266310997292905,4.241547096594498,-3.4760684291766037,1.8366839104391863,-0.752585949154852,3.548308537907319,-0.6681421371002165,3.9472805460152425,-0.7269586451747799,3.7772819525539028,-0.3313528894721895,-1.2969893158190868,1.2675442974360907,0.8397399153773765,-0.08823917775652657,-0.3889792622424855,1.8146452111804248,2.373368921657723,1.8676341997807284,3.2852242899588555,-2.987565380736612,-0.8231768956660608,0.5869465894847119,0.31463008050964214,-0.2464100318234513,4.331621877563652,3.317875197972618,0.7853216218962988,-1.0964760552361053,1.413949996574867,-0.5986710937549166,2.0514249623289236,0.32922894733025754,-0.49412223573219555,2.8716324492019094,2.536350696272945,1.2069603767253156,-1.266928395345596,-0.5648569109170859,2.486122764462262,-1.7865258531957457,0.33096673260541065,-1.9391059813483424,1.0988738747935702,0.2545302098901122,-0.20711884967937227,1.0385529600453556,2.56735977654435,-1.838502320891101,-2.0415360001003755,-1.514134938357297,2.8960560919382137,-0.6552109850014698,-0.10161702297424839,2
-0.9963968212010502,-6.317067325537538,14.970322521535868,10.529267894215192,-6.951618460305781,-6.307978967598931,-10.055641556379822,-7.850953944026779,-3.6759815291616666,-2.273739284107246,5.052429742615925,2.4838933277775097,5.122079833051362,2.1565734370100818,2.8019829147193556,-2.00384942682527,-3.5527056389814096,3.8691146556515634,2.5355449786274606,-0.224078403906895,-2.7873279851439774,3.455924120229597,0.940015084789579,-0.7828220371790086,4.201893064466435,2.431117179437795,-2.5619280058560605,-0.7451607320656695,0.6498012893709834,0.16918034788181172,-7.970703534612039,5.412669226517009,5.255259773480585,1.9559064654104659,-0.44741288758189596,2.6840441710808576,6.567596856716857,0.4980598021955248,-3.0310591244030993,1.6862153179328458,-0.0615122426706494,2.483984023338675,-1.6954884285617846,-2.4185579537450392,1.0639231315663316,-1.746237046105989,5.2659397845070455,0.958101121952217,-4.537371055667073,-3.7932225303129052,2.0125197398915535,1.6720064435890358,-4.78337337636367,1.1482491012074634,-0.5481810039497754,5.775762142720596,0.7609936963606552,-0.19814462761171758,-0.8672936838916357,1.7222293316629993,0.32451154797559484,-0.7478951297057858,-2.368159770436276,-0.1382085923613548,-5.346693918229412,-5.289114907794737,3.0615672842721837,-1.964017252624695,-4.980195203654208,-3.143873029991096,-1.716720867098564,-3.786567371722424,1.5431724015363453,1.2732661033839112,2.378311901739004,-3.3617626771745948,-0.2385379191956503,0.5995414911405537,1.0178451683774747,2.9361820824657308,3.46542636006243,3.2813780072370857,0.9914500713995531,-2.1272188978918343,-2.6094646433723163,-0.07727575207185737,-0.8951386958540668,-3.0186630629975726,0.3839961306074729,3.869915474212716,-2.808313295095539,3.8695003386604907,-2.742253831630306,4.343197753267267,3.098563396307062,-0.643772520342828,2.1489131926601033,0.954929460786791,1.3302798871697834,0.22627270812862468,3.2139639011945427,-0.10360756987575732,0.25599575697234594,4.776384854424758,1.1565237803190358,0.38614219236752484,2.705147257282393,-0.9791831184811352,2.2840379491230998,-2.103008484533113,-0.39195220456599983,-3.97966714447855,0.677821829249945,1.4688384282436828,-3.075156587756091,-1.0434103069569054,0.3270592253807508,0.13731518041669213,0.9093595302717912,-1.3430742362446013,1.5132429946287664,1.1603438712782916,-1.4591827210866992,-3.6668979206315266,1.1250968318317858,-0.26171725072727886,-2.1264568615284927,0.5430297227586818,1.1201368226362702,-2.445124727852548,-2.5834633271742202,-3.4276802749102764,-1.3383969865125394,4.856955555408068,-0.40592609989997475,-0.8479277070417796,0.042223196750234795,-0.09149351895082261,-0.9531714522012423,1.2475166804547897,0.39909492049072454,0.7820346130667969,0.24178387718656483,-0.20464442887032794,1.8412064956685774,-0.380294896416849,-0.46494986904983193,-0.7259653970710797,2
-16.73514762779171,-10.755825767322259,-14.907005700699472,4.223189009512341,2.903376173740003,1.7607568643442604,-7.656330421315365,-2.580574385577255,11.918343157631908,0.9261814519305533,-10.160433879050231,7.593941404023681,1.678260002634841,-13.664122058321931,6.478889191181645,6.276494687926067,0.5114592604329042,1.5283776044385287,-0.8402978949532784,4.36148672006173,4.910627620884726,0.1802534416577221,3.695342390394202,-4.245710515926497,-5.490559319112703,1.4309276319415483,15.111708421251715,-5.9356123176276565,-1.895001527283373,8.369337175058478,6.833154934840347,-0.33714706700104685,-0.8155924520959297,2.2259511803085887,-0.8274205487292016,-0.8158899726439004,2.238329971406561,1.4724699171716564,-5.125663831292428,4.371551399090044,-1.1146527293502286,4.730162686048854,-5.137268554302524,-2.1976776129840263,9.111633546901878,-2.813208004951585,3.2625278564674396,3.9890227093090918,6.375420524793237,0.8014943289912039,-5.159363830948073,-0.754851012471176,-2.146509873991251,6.344752860020538,6.351981579058714,0.8527762218203314,3.069191071206397,1.5795189985111915,5.19037449490576,-2.4909029831966016,1.7006813666406708,2.2114743989412955,-0.4937232194890217,-0.33910695047498873,-1.6921450010031063,2.128769746070387,3.08402341202616,-2.794713507579708,-1.7343077550741297,0.5039694502119186,-0.9655172817086589,4.0356757887228865,-1.2351993755747548,-1.9300518634827,0.9202303640061218,-0.18459779853850855,-1.984906108923363,2.382313389708397,-2.136977901805909,3.3344013274013435,5.616901810143463,1.9738617728919499,-0.3629114915350504,-2.2741321069553195,-1.6842070736473655,-2.585231878764329,0.34056304617974226,-2.1212465779725562,-0.3182066520191137,0.13859175744886934,-1.9967038202562664,-0.06843367357862967,2.1998885632469225,1.3853964752988985,-5.215823147624995,2.8041832466616805,2.8536760663873326,-2.381146593287457,-1.111359714121537,1.471076207503735,-0.43535380210160163,1.880446004670446,1.804651549144569,4.037061069909208,3.135274746890049,0.7328824738862691,0.2089026408561152,-3.030114971540669,-0.1013618054608906,0.7094047858333038,-0.23140418699025417,-2.560009029257299,0.16900166862752736,1.492851837069154,0.1935976177205879,-1.8997209580789642,-0.6109258465023883,-0.789893235091011,3.689739704263773,-0.3007465930007971,2.617863695260639,1.2419074767975467,0.43756121142527804,1.2333481738569505,0.43416085581572167,2.9616570932372137,-0.5518609196403179,-1.7186604628697564,4.383211442229646,-2.6933554061114995,3.269738102843244,0.35355588877438265,-2.6870292962230913,0.5221225024899707,1.7751812343461835,0.6137000776901573,-2.3022555022143116,0.38662510935031863,1.1895053526797446,-0.4024137015812449,-2.3348264609104437,-0.16890588685956034,0.3554313426438977,1.113063426971584,-3.4586152349909898,-0.6491652186344757,0.8335363999372978,0.6004656171010674,2
-14.8149461620971,2.79508201201647,13.647429172961305,3.960370497191904,-5.580020966826795,13.615722813962673,0.27095030722473007,2.21874874791964,1.1879034263050243,-9.824310504042428,-0.17861350389805292,1.660478315024404,-8.236184797276524,10.66192744712657,6.437799033856375,4.1845732223465,4.528648941544098,-3.44512644543622,2.619369001892415,1.9062414073723375,-1.4320672391515807,-4.248240109848014,13.449894234960798,-2.2812960968560674,5.654367898748862,-1.2897780325072978,-0.3398881188694771,12.452236387352004,7.7852093300619725,8.237271947494026,-2.20554262748968,-5.023798113416814,-3.6541525627603826,4.0158832336573695,0.20114152986086556,-1.2491405977409682,-5.5721651974811515,2.3346635848404294,-6.730741393235299,-3.668027772784898,0.11364135793863193,-1.802191608132363,8.599071337088166,-0.20140023462624754,-5.490265546342201,-4.230132106422102,-7.815176895319231,-5.541362499746833,1.784945372392901,0.53928225795677,-2.7139119307352986,-1.1632326987275117,-0.9383219177728453,-2.9111544003803504,-3.014998098024545,4.076955549996319,0.24903988331920537,0.9000743728858006,-3.2996752152147413,1.6967494665307616,1.1320294477681745,0.808115977811716,-0.49492081462941834,-4.344363314687007,3.258451887491807,2.547655185005548,5.8891341111785405,0.3207328114289688,0.29215622654746803,1.0483626836896751,-6.449798833126603,1.052050222310373,3.098243745664456,2.681392654764114,0.39911844017502857,3.342294770526382,0.9061828442463048,2.296113028613875,1.9534280769484267,0.06641884769743518,5.433234962759523,0.5258435424488231,-0.901400313218649,-2.4783624092632826,-1.0856158769352278,-0.8911818931847341,-4.345292264345912,1.4271525057922423,2.214528976934533,-0.1607675255622645,-2.163016396444469,-2.7330979743775874,-0.7652736972472972,-1.9499907439125965,3.300447892414739,1.9452835531240815,0.16776846319531227,4.184250247662648,-1.6572808471342284,2.4680121521905427,0.1401427983751693,-0.44293576146770786,-1.0802713944465976,1.4254675250524358,2.2090129406562555,3.0569397063965256,0.17831361268903015,0.7707519026119196,1.9296774462549946,1.463446883072645,-1.6140906332209795,-1.9166996562762606,1.4087787729322372,0.5578372710540334,-0.8150102620722046,-2.366407456166872,-1.9093507936323288,1.3936334799408185,-1.6551855018782238,-1.6663814216124468,0.8893052147411796,0.21034135930588752,-1.310163796235047,-0.9629318102082395,-4.381357503458839,-1.8164779457111313,-0.3363045254803514,1.1255673880380455,-0.11897000956660533,3.908172863638309,0.10253851753765499,-0.33135591300888373,-0.9905120965370954,-1.879921674363319,0.4702817652650024,0.9074666113550962,-3.541888318431056,-0.42736850113029595,-2.4778600682999286,-1.6484730053965335,-1.3587352195348565,-1.986663590900854,1.6741221952958094,3.1747455402021756,0.6860845919466674,2.3388981504566186,0.9830103485398665,-0.27950053291878496,2
-3.8119039024060024,-0.30675443404884833,12.542692264768723,11.973926431073652,0.4430169973412715,0.5197360649495729,-18.102284645189634,7.971617872370298,5.673944759413249,-2.157930616681377,7.4603125152737135,0.3195217672853853,6.307230545826099,7.286489019892174,-3.6094532623913045,-3.1761959106088034,-0.21072480249849485,5.43027455969353,4.198035464495314,-1.6485730886509722,-8.531223245641156,6.231493338578813,4.099721162518464,1.5697090044530904,3.092249455877506,-0.8588944496430174,-3.6469110568363763,-6.793479773727809,6.411118897640488,-0.1732214900176614,-2.6992853565865995,-1.9919027439567405,1.8672435011294921,-6.340642654732381,-4.174823141525855,-0.06892601821026344,-1.7629009217649116,4.026852087560096,-4.43810562652803,4.933725669837623,-9.893542184257432,4.593389776644095,-2.5450343206339907,8.281067704342355,-2.0867333870729374,-8.101923716475593,4.414316762604133,4.228682219634249,0.37529735357610255,1.9991040535281492,6.359098000684271,-3.232421841814941,2.5328649488005954,11.623420739058865,-1.269675982008027,5.093131216848241,-7.3077642123378626,3.257525281044343,1.5969375813382154,-2.2562041675644853,1.8572331608456853,0.5931342688389558,4.1140685790638685,-4.528690684464367,-5.428958298769286,0.5881686898097391,-1.8257816922427492,-3.7591708559223727,1.6604120391764285,-1.4572233504829952,1.074586085785574,-0.7735195346923175,0.8448543343375777,-1.4374664402958106,-6.959800987174152,2.2613465364626193,-5.068953530747194,-3.8410745375373203,0.772250197840136,-0.8850832003295018,-3.7651441064919453,-1.6617390957434302,-3.858558893849407,4.07263665584382,-3.8926866919447454,-0.2889101812812915,-1.246702295467797,-1.1814919564721849,0.5928173780261234,-1.0955829556058432,-0.6588834860362082,0.08036865394534161,1.1755724731180057,-3.882374162075839,-2.7173565538375075,-5.770649449056215,1.8096459076604947,1.937189276480773,1.38689472172577,-2.287282498742284,1.7663235018823407,3.27329528445435,0.4935934929868862,2.144834752528946,-5.677258950168819,-0.7459843295285088,-2.2532864551757656,-3.0210238060838797,3.035765564293806,1.2217738726216585,2.6084263247666226,1.254209905499812,0.33172000012734904,-0.9330732910316576,1.7086211559959925,1.2308318719160445,0.09655422612755969,0.1335397376260642,5.499384633294058,3.8169779537212114,-1.9988469410671557,2.0586095959716584,2.17368572501482,0.4345362762082382,1.6734571343519111,1.3229343542346232,-2.8338548704426585,-4.48557146031021,1.7034275532161516,4.508572348319144,0.4604382693496666,2.4265431248872327,-0.5220345137935779,0.3149967793065728,-2.910080573307193,-1.2560105163540607,2.1210611699531796,0.4492801385332703,-1.388355836775692,2.089330578513499,-3.967140447948136,0.41253212613538465,-3.2234912654793075,-1.5291497273827597,0.8415494183348525,-0.7568728544846381,0.4568242610874622,-0.35555054889948046,2
-2.4708738539879747,-20.979438176022423,-4.823560613440909,-1.0160551215348546,-0.16258685080404148,0.5098286634233476,0.604931445470531,-0.5901784883533512,-0.9626664542541541,0.8202428000982056,3.368826498709777,-3.865228509775222,-0.9475130060276786,-9.007292863391681,7.990356217526978,0.4345696157017311,-7.190859551147328,5.797678580060848,-1.4114502868613057,-7.130289322633421,-9.05377890820369,-0.7722284710713537,-3.3860110563812444,9.136158798921983,-10.44344120463386,-1.6413828403541042,10.188060781373888,-2.2540102496340353,5.180085006974396,-5.456707774122393,-8.59545375341311,-5.835295607824496,16.774381367671555,-4.637528165623969,-1.5982586062823179,-0.40791037126575036,-1.5102593737821506,-0.3791829226149344,8.73908478563921,-1.6991948056835715,8.124056580877474,-2.5474477512190936,-2.901436181487783,-3.333286137689252,2.613064570340561,-1.5649433343107495,-4.009340780060956,-4.162768945744231,-5.246189090122655,-0.9544589576010118,-3.6219614123266295,-4.30774517849134,-0.8278337833035105,-0.7283852159413265,5.208500003862307,-0.08558035592384701,1.0811567647579512,4.532532813516984,-2.62448426592347,2.861026160817009,-0.8489885360375753,1.788431721776499,3.451963983325429,3.308553531207423,4.852436853006576,0.04580359424237042,-0.5996939535165983,5.694489924986833,-3.037429348136531,-0.19802561675469588,1.7202638017862506,-3.547147906648704,-1.872612540253558,2.0653833418655694,-4.656398920145966,0.1234762713526572,4.162605720976978,6.255001690505386,1.4838881745976056,-1.73120712235045,-1.6895474914622381,1.4830487231206286,1.7688917415882612,1.0758859817630062,-5.770646266891461,-0.28528788074962524,-0.6112634088839036,1.3605414108597398,-1.2889748744332503,0.45407302467065885,-1.6817581986435024,-1.8195546899954667,5.888205489217221,-0.5618411506592877,2.459387454119591,1.3077266972102788,0.7669645684166435,-2.4043002168804435,-0.11974703967448952,0.8580812128497946,-0.09018803973684927,-0.43172922012843623,-0.731432906748587,-1.2025425864921135,-0.6092196316488323,-0.5344897659872029,-3.8271501123458993,5.614193468844447,-0.8175349348634016,3.5122048387546108,-3.51325920331296,0.6292820081272085,4.031285141861485,2.2163134286034896,0.9006304934086506,-1.4226257304173282,0.4955107644780362,-1.6621983589625173,-1.8794803747489977,-0.708166299696494,-1.198570069157279,0.6377814789589421,2.2871596766661897,0.34041555301150567,-0.5919768037203952,-0.8696356942155384,-3.7531802648670385,-2.683370327155313,5.9341811120593855,1.5540708120188227,-0.40931247749247035,2.697535895183228,-1.7961783978287518,1.615700603764493,-2.1437427887891003,1.4807807030579265,0.3562875111873993,-0.6283942480177875,1.1331076009384795,-1.1036935337312284,0.894129579725236,0.7471464966952559,0.23523894793249564,0.40319967629168746,-0.4340939477414682,0.13896446921107855,-0.5793846918596768,1.9595919628783918,2
-18.183478222565846,-17.57764127317721,-5.898905863425786,3.8246018189644713,-4.363454155773998,-6.724936876242528,2.7165250716924816,-1.5505140857220479,3.5131158342422255,2.8061929836586805,-1.1566346960843967,-7.633770347698452,-1.2554537677053015,-5.841875268673941,-10.85050058115532,2.4075070019200835,-2.570568132385683,19.042459588356643,-5.478975063596326,-2.3375731845614403,-8.843070279849295,3.4746391440401965,0.9349060873487903,-1.2302266371232942,2.7806683063085584,-4.317582927023937,-4.765826261735899,-3.799475249618376,-4.191460147716341,4.752142428226034,-3.441451051863343,5.847080379048946,-12.426793902057195,-5.541752764922522,1.1881615691173704,3.246974669899176,2.6783410174162254,4.9923247462776805,3.2909117131849386,-5.073936480059761,2.391661796464107,-1.3005488926176858,3.2425663518134837,-3.875876761290978,-5.223656324822633,0.7613718182293822,-1.8666403282047574,-0.10928687366648741,5.686854010974154,-0.03331558686824948,-3.208789627616236,3.958683866372423,-5.736778413025149,-1.0569906038864947,-4.346441798189353,-4.887496712026782,-7.409233824566811,-6.043254520970651,-1.376556130505832,1.917984294015558,-2.678615855674295,-3.017751239434924,-0.6793731909329881,4.988411684506499,-3.7502285034125387,2.743112400791584,-1.4777828993243012,-1.6205483609011395,-1.2008661562241454,-2.1116735888927187,-1.3443493435228693,0.5895142403575363,-1.4725312521993899,0.9798746446698964,1.0367692097875858,2.6537905469677865,0.41223731387880086,-3.0036138348671355,-1.9663216184696661,-2.6241902284139997,-0.5714617943015876,0.01791360128204944,-1.615263126817927,3.248095206440918,3.032084772334668,-2.895604430353926,-2.714164584895021,-0.23686302166318227,-5.3912096530047355,-0.8853678897042173,-0.820865713298327,4.092400460659773,-3.334649189903011,-1.5979199972865734,2.4434886809594967,1.7349806185554761,1.3007096380157435,-2.848595926680604,-2.580691906711525,2.3457626253199795,3.5014234172420755,0.06537294053529868,-3.5665503883933356,-2.892569350948185,-3.3989748246374996,3.3983102102332245,-4.479749486013632,0.48155830752060724,-4.141868050601256,-1.3119518869853994,-2.0329568943847436,0.7068249909845351,-2.7646619779200705,-4.399233453654836,1.8018447832333033,-3.177839986370797,-1.6140471931924105,-0.4760198521065515,0.8668435209325807,0.47182714870962633,-0.16086275375640668,5.459179804598211,0.06569003975495169,-3.282708139808839,-1.180890090249257,3.6340198149149847,2.7104305359102807,-2.88299043469253,-0.1592169822403847,-2.439852806775752,-0.696438546007671,3.5573863772607877,-1.2177992927222336,0.9759668734149697,-0.9018930227117006,1.4517902978276243,4.356066967763056,3.302973158014957,-0.9889904263130455,-1.9055798391983503,2.8747822019019567,2.909077503587708,3.6600374281544186,0.9558458131899283,-0.08973752149846526,0.12919333456677984,-0.431169711762774,-0.7562849960995578,2
-3.075849003881069,-18.92110293228926,-5.319206795463476,-3.887634712246168,1.1847842535987434,-3.9877241797779477,-1.9033229334991328,-12.469487506139423,-1.2693130993934987,-0.4104558125090259,-1.623981144651833,-0.988168323351845,7.314588391854908,1.0193968735443204,-3.95488726018981,0.25219021430401406,-2.630754891396311,4.762655509986877,-1.480270657518789,0.32295426101569696,-9.994262518926652,-2.0789294566361805,3.0155712741045972,-5.5496168043855985,5.265068353722941,1.7198039345731904,-12.039638016419179,-3.5468704094772545,1.3820733698350862,0.17543088961305767,5.878649443641564,-0.3702238494998971,-1.937557045982048,-0.21045589818311367,0.9887489185328069,8.774138777963751,4.021684218530694,12.914235231944273,-4.183378929251433,-2.211381987165165,1.723632292017113,5.6266668818970205,-2.3804177223287564,-4.934578229873524,5.5037005786633495,6.469323019447227,4.880888017005998,-3.7178805101862706,-3.632968175951489,-9.738741267312028,-6.538347732832236,-3.0186758796857207,-5.338563662659213,-2.740838963707464,0.9785715664298695,-2.36742893155242,7.521369378421494,2.960394478878874,1.1238788896792673,0.8224228153896499,0.3825636527165017,-2.1030377572003536,-3.304642380846574,1.4797410551955552,3.1657917808193825,1.2439948404603856,-2.9793061519160156,-3.8987783851066324,-2.49908135120866,0.004779287177222014,6.055164095436656,-5.399601008575038,0.02056799267574181,0.1957833158242182,1.2243316415871064,2.4323477544653476,-3.82608131267526,-0.49454683084879797,1.3290198250713645,6.587850195449392,3.580479498769133,4.04401695362568,-1.3051794453768302,-6.896720038643482,-2.97739546462768,4.91149753666073,0.07019769548956405,-1.5592197345289247,-1.2546793285434152,-4.665342680267566,4.38385952860537,-1.5681280797478043,0.5646023754280586,1.4756109585481247,-2.1705649932743234,1.1073278838251377,-1.7630695388484707,1.1991898636810523,1.0647615790317895,0.7335515797191295,0.06917193334843387,3.1036565389598585,2.0993833745102943,1.8236398558807385,-2.8473307108004007,-0.05755464276125375,0.7450831743717329,0.5028615486197754,1.2950853478511741,-1.4772865547853942,-0.6758158166184854,-0.5946148980334792,-0.6500928957156105,1.3265950348876445,1.311140280715363,1.9407742254210225,-2.182902795777696,-1.4548534473146755,1.7391428459467102,-1.6658937696689429,-1.2440659964668708,-1.7979172666341023,-1.301662534655339,-1.1600093208630944,-1.4057562742559395,-3.0563907175866807,-0.342657193900926,3.94342608201522,1.1994953945982387,0.34064853135396017,-0.9157248978154736,-0.4636675030840042,-1.3077264908875603,-0.7472325514703814,1.8025905510665607,-0.9071461160478865,4.347483269253301,0.19063500358855687,-3.002090556396679,2.9044092584393266,1.65527758871878,1.2598361903600752,0.4844920844678349,-3.7424194544642733,-1.203727705761636,2.460091349823249,-2.543640973972359,1.040548399116305,2
0.4409088527368086,16.395085892074135,4.349435758989037,5.400352149214623,-13.077231398960011,-0.30676093286165995,-8.076982879295432,-8.500704947162378,-1.5155527438754153,-7.072631170399264,6.1270977355752905,0.8148268814297603,-4.1814100595222685,0.43160901020636155,2.7864292283317784,1.705929831603736,2.657676974535898,4.588959837097548,1.8917990998360608,-1.136252694130289,-4.731784001693185,3.8774704169461676,4.0354132069500785,3.6866466368045794,0.4173734027158515,-2.7362149085216467,-1.293574050915228,-0.38984815721029664,-2.9644298942440326,2.1734984090965326,-7.38771039344087,0.3382271898466453,11.095622754840715,-2.8619349417973767,-6.463390152601926,2.675936217622548,7.284429953008968,-0.704143882848376,-5.7263606698882175,3.1586106703969565,-1.946498610096376,0.6599995776766757,-0.8848282819921267,2.036350126058005,1.4291324469268092,-1.444605807868389,-0.10368413073321757,-2.280150194621018,-4.272645870485621,-5.306299795149882,1.4309380485182184,-3.187521969588351,-8.61756932981312,-0.542717771563766,3.8482640044849177,2.2525413017742735,-1.7083273385347142,5.2401301870628005,1.480568880433229,1.0619754632429508,-1.3582625861284694,-3.0228907578826827,1.6632331108410392,-5.911278664931682,-1.1158442022971578,0.5518612282885428,6.58343352842247,0.25007335091672034,-2.5844387349395714,3.5520578250359454,0.10564851467767358,1.412028629262442,1.788945536077786,1.5206317773733808,7.096935208204964,0.12744018475703003,2.5837610277130847,0.8209108688117038,1.7136711329975902,2.489535001832737,-2.4744025503532776,-0.4724650537226331,-2.5637392599122304,-3.805076991713903,3.330083375124609,-1.8860369327586548,1.131347933587938,-0.5737487051957788,3.2378569915433317,1.9112343294411056,-4.32042583225882,-1.7779953716966552,3.702007986065367,1.7358669113915848,1.5788944982332187,-2.2764566760140212,1.5514839992523106,-1.3085413873958645,-0.6430707969175877,-3.3555185527622013,1.2722641897102442,-0.9688640184327052,2.569506451331587,-1.3398555706213866,-2.3082282206814053,-1.2980934435038312,2.297034349442147,1.6801554111770942,0.6037181949094644,0.26690490206468864,2.5130794942918526,-2.5929787084976295,-2.7993666674156312,1.9163414421401397,-2.024658999147591,0.3901389958641009,1.0971169526439872,-0.7779911816530654,-0.16381652615949208,1.9213339441235773,-1.7520542824321022,0.7690176500416004,1.4077626413805364,1.4980493204106478,2.3304827615439496,2.9202680374028622,0.02400033225015236,0.13697326531600454,0.971976369562675,-0.20019418551745308,-0.933238062972804,1.011136596935316,0.9467400741385099,3.841561714343522,-1.6285089529403174,-2.1426391394137103,2.752139680016569,1.1891492826216232,0.9111472649435718,-0.3745919121817391,4.659311587481452,-1.046981643270739,-0.16296480686958728,-0.8421216976735173,1.9176930069811118,-4.176175534517259,0.32689092083748816,0.20698577357523298,2
-8.936090721609219,-13.650858965425147,-0.13143695682420156,4.8537886187645425,-6.741846171559951,-5.03713241845136,-2.712762883942884,-5.063199297645691,15.105805830728649,9.193897579444538,-1.8665041604106953,4.000235050015238,-7.053926051201016,-3.7322834620316248,2.701052686868088,-7.880844027702076,-1.8173354392238634,-9.371566536400433,0.46904106332650397,-3.6147566102936532,-10.315696936581071,-0.8439304012320007,0.5048746033152848,2.6101220583762132,-2.667347521351581,-2.28078299846469,1.7052332357224438,-0.16977428589022803,-3.269125955051146,-4.250155623868862,-0.2820441682371465,-4.506924760288416,0.1367400437388353,-4.93223959808623,-4.177264747441343,-0.4655905658582669,-1.9105552644071784,-3.3996421383021516,6.301474998520716,2.4700870980849987,-2.528740817669311,-2.437906854801177,3.9516412384572837,2.428308013829067,-1.738740174887905,2.6571107764704056,2.808883769842507,-1.3670108194045842,-5.138983650988092,-6.90611934449554,-1.2962292900080057,10.191520973856433,-1.4825922360060766,-2.228500728666027,0.3245923733071443,3.0232503886072477,-3.756193419506919,-2.583834951507972,-2.6051941179224753,6.717350728277993,2.5390657942389265,-0.8884850438034381,0.22177701838586805,2.7696389113674096,1.740922620382259,6.0288534557081555,-2.4676385694892993,0.6233664922578116,5.090469553231612,8.469487869143467,-2.2343132051047867,-3.0309161006535,-0.20195045983997162,0.7679806304466082,-1.6750115721167633,3.9960491169952137,-0.490316018676085,-1.1049069840067887,-4.749774806540797,2.845513218607169,4.165977162360509,7.299812889874547,0.330596757985649,1.4551659106378454,5.005084169086908,3.551022952066752,0.37510823038355834,-1.1530091265669482,-7.070654754697727,-4.450604263810729,-4.752988619326482,-0.843404255709561,1.4870072431007042,3.2895864309714637,1.4828869209800912,-4.25896975967499,0.35608938408493573,0.2700787098321517,-1.0699046994950365,2.9748759408273107,2.2894442887484248,2.9500612443973027,-3.7839973400653197,-0.03291430121537613,-1.169843222779906,1.4844123371065376,4.059199765116036,-1.6819994246615027,-2.3706295583650645,-1.0163178111934605,-1.9682010014050295,-3.324554592755159,2.5762669833740954,0.3718699485984219,-4.184013291565601,1.379537319682631,-1.7917984282586101,-3.071493586629091,-0.03139151823662666,4.261131308414718,0.04074009142017483,-1.4795231704991345,2.9730998137321305,-1.9959778371829555,-1.2037597069168806,-0.7067672722109533,-0.44374254339975433,2.3983145564098356,1.6443640413023912,2.8390918846353728,-2.0019115007412283,0.6640585447231424,-3.161980105690802,-3.1652467775290147,-3.8112232386058005,-1.4320399798616767,1.9121795024653536,2.0233622022126014,-1.669563704589734,-0.3745128768996398,-1.445471424856651,0.10849690189243845,0.36695741014990907,-0.2776037807176063,-0.6005243535272169,-5.896283629478608,-3.318856308202052,0.4938834106168412,2
-3.137339848911271,1.830388903898274,23.23668877819373,5.951952793264121,-5.1942614749006815,3.3372517256217185,-8.861231846455242,5.272891363598123,-4.157334307385126,-0.9216546273049331,9.652172766567912,-3.1353375412118227,-0.6362137908359785,1.8894715537832663,3.455007917721895,-7.051408512855078,-2.330590535653564,-6.359496630140457,0.7762921494817683,4.848055511960185,-2.3761027060296747,-0.6792522044210145,-0.16924027103111222,5.169257094326799,0.8371343187002048,-4.381168614405711,-4.541463853196661,-0.9013400034765708,0.9392427130982081,4.073967516343473,-1.5340136941455669,2.10942046549067,0.4588137266676546,2.4373358232761495,4.979833362396716,1.2334236247464128,1.7480850653337705,2.7192109333368117,-5.6375976728399495,2.6634821759899725,-2.981196464272057,3.6653972615096087,1.2192804049345614,-4.5332878506596614,-0.16273762472858713,-6.611712612886968,-0.2116335237024959,4.995720537057976,-1.0650495952682717,6.129650415662014,3.2219714612378754,-2.4528535309321766,-3.113779938299836,2.8103202968444325,1.8318812682897954,5.853772265307579,1.9677163961565054,-5.749551514146432,1.732337059816926,4.7156298985613905,-7.132570209881232,-3.626797575368868,3.154067710620829,3.4553803355913804,-2.7588707602490863,0.5312711006329864,1.3082830157808238,1.3275780392119818,0.7937801516777342,-2.4170133156956446,-0.2702973729653583,-2.049029542574127,-4.777729448941043,-0.3472417187001127,-0.770221029185201,5.524470677524614,2.1684944623483946,2.2336215545421494,-2.731207353492687,-0.6673269873456056,4.474865445015134,1.2715240268288215,-0.6768464569323305,0.29703760855042705,-5.070939529737654,1.7944689446409674,-0.13841700400137577,-0.7828574461710907,-3.925474314795374,-1.4362565380183596,-3.060156360316694,1.811968477878083,-0.492271413871005,1.7358999127115788,0.7935740700488553,0.006342154857733232,-3.9386808671912084,-1.7235999958410917,-1.6002958733996917,-3.1093932689094816,0.802410142101762,1.2555384251850732,2.45285134753743,-0.93811591510399,-0.5514751420933314,2.2445150249982917,4.88626119516558,1.5572565121856712,-3.8172030568966697,2.9934736319064297,-1.0834280504132667,-1.4769539269243688,3.394132097501149,-3.302168895932601,2.700712984873371,-1.8540702917564755,-5.503911134053295,-1.1180397745307358,-0.5393112829401666,-2.5829457161990574,-0.6442246651796167,-0.31520475343149795,-0.7699723842338088,0.34608182470287874,2.7558029578573917,0.9066707969385543,2.0023186587988255,-1.4292571098602487,1.635740115673659,-0.8372346301543517,-0.08749744679224915,-2.3852583357272334,3.41139778831081,2.722830902536281,0.7555915515358117,-1.427722358871134,-1.6504824036992114,-2.171508762893447,-1.3064014394505765,2.923787756416806,-3.2797851460855365,0.11994585339440292,-0.8663665597694598,1.9947847822970612,1.2858488521759177,3.0369512958579157,-1.3388576041547735,2.655593743815751,2
